R_amplitude,QRS_duration,RR_interval,HRV,Dominant_frequency,FFT_energy,Wavelet_energy_approx,Wavelet_energy_detail1,Wavelet_energy_detail2,Wavelet_energy_detail3,Wavelet_entropy,Class,Predicted_Class
1.2325610474841744,0.00391591238239494,,13.573685211962916,6.0,1358.337080798647,3.8772528740057064,3.1398930488131174,1.9442002679595822,0.08371285749134275,-1.6875369442681603,+,
1.2281915357746875,0.004045266988900614,292.0,13.573685211962916,6.0,1144.2540077701287,2.7941333747054,2.2832921440736196,2.433800307989217,0.11900931926055712,-1.1318099768475942,N,
1.1358980204278735,0.0038841350130089376,284.0,13.573685211962916,6.0,1016.6260151169074,2.3409599242878847,2.1433403074566018,2.21932380385935,0.09757576862131072,-0.7920560943766572,N,
1.087513348578846,0.003625022306139974,285.0,13.573685211962916,6.0,909.2026551414089,1.8544756333301464,1.794269028276178,2.231657788284267,0.17117198167917191,-0.04782935186131241,N,
1.1471317501924827,0.0037030956783943012,284.0,13.573685211962916,6.0,1037.72546827267,2.341654109441707,1.9168312778278307,2.455951351499164,0.19495194536514995,0.2859701318110612,N,
1.2044655979466374,0.0039103273142581186,294.0,13.573685211962916,6.0,1184.951878670474,2.936143418471965,2.3268720823955413,2.522144693253613,0.13207517296612303,-0.6691279163079503,N,
1.151772113745572,0.0037999003755761003,283.0,13.573685211962916,14.4,1042.969393036576,2.3707316156832188,2.2128675100218276,2.367692002349866,0.07329461780801605,-0.5041205945672753,N,
1.1896577317931207,0.003848159263573318,283.0,13.573685211962916,4.8,1255.200697876719,2.934017036416087,5.269118237596182,0.07774715258029352,0.0814530498647236,-7.0439549001304265,N,
1.2135918537838506,0.003965912639518364,311.0,13.573685211962916,6.0,1092.9100871720248,3.9293080194154135,2.937221526445837,0.1755780219394615,0.24314060430158096,-0.4258700180774329,A,
1.211171993161042,0.003938442805569261,311.0,13.573685211962916,6.0,1053.3217441733134,2.5047622627506057,1.987535907191683,2.3576593701981032,0.15110748985074896,-0.7671431572638742,N,
1.0865476151173064,0.0036340259703488784,281.0,13.573685211962916,6.0,894.2905330672478,3.0747466011298754,2.1094229443832617,0.6410411058375267,0.13210706260088118,0.32345475894825365,N,
1.073098796833306,0.0035167973601046548,281.0,13.573685211962916,6.0,932.9731705649165,2.390428484799763,1.838811911439903,1.8824386948184075,0.09013111206804608,-0.37127187247501464,N,
1.1709327943027439,0.003875057825743925,303.0,13.573685211962916,6.0,1125.575001418333,2.8756653224510527,2.319119952181565,2.221595029388587,0.07347172948852958,-1.1889900766921526,N,
1.142417444296008,0.00385309328562666,308.0,13.573685211962916,6.0,1066.3861328979165,2.602418862598923,2.332886541565151,2.065391072270612,0.11752840810967635,-0.5604085365523055,N,
1.0840548197658155,0.0035843060078942775,295.0,13.573685211962916,6.0,935.6670558182323,2.387318044776844,2.0261901194430485,1.7370031829052892,0.0782712842520158,-0.6107472714472119,N,
1.155380846443576,0.0036588250637674155,299.0,13.573685211962916,6.0,1091.3845235253361,2.893222055505245,2.4442702294061096,1.9038713897230322,0.03565646120188297,-1.1111121000375,N,
1.1718117177440965,0.0037596928020074733,296.0,13.573685211962916,6.0,1083.5818812758678,2.595530677557276,2.139738344112516,2.393411185088996,0.09992871637397994,-0.7714843895692681,N,
1.0930054828650357,0.0037038476761835624,286.0,13.573685211962916,6.0,884.1254653400598,1.9510595978330083,1.718556629389174,2.050065095256491,0.18267276611890085,-0.2003582645573894,N,
1.2369750298971809,0.004102574119226975,287.0,13.573685211962916,6.0,1510.5726679891436,4.875398263219662,3.629714359936197,1.5505001412121675,0.031702850869073734,-2.616283611972053,N,
1.183879566487591,0.003967885232861498,285.0,13.573685211962916,6.0,1069.2530248640028,2.306196859113306,2.289022241960091,2.3746956551288614,0.1692919435643458,-0.8151937518668859,N,
1.2557820567422957,0.004051367366088881,296.0,13.573685211962916,6.0,1276.5636638253816,3.1841248039907653,2.6708132317856146,2.5435012118462876,0.11353721871629052,-1.5113214049064514,N,
1.1181671933233683,0.003828314759345234,312.0,13.573685211962916,6.0,1077.108170257685,2.638655716853827,2.6171595307614037,1.9134323346610624,0.039540850003623514,-1.5118423861767842,N,
1.1358564685699446,0.003805113927780766,297.0,13.573685211962916,6.0,1078.4839124071132,2.6979013118360946,2.222598539672702,2.1647396793634686,0.09570864376096448,-0.804948142640876,N,
1.2270893354032315,0.0040632568851295195,282.0,13.573685211962916,6.0,1115.4332106943225,2.7851496572187973,2.2856199616111064,2.2642671700516885,0.09791255701314747,-1.042943205803214,N,
1.283344337441399,0.00425821438598517,286.0,13.573685211962916,6.0,1712.1211633481682,5.390850234324351,4.138672235799912,1.8294163991687065,0.042340426571788936,-3.3920566510978034,N,
1.1609337112796239,0.0038773981099377883,278.0,13.573685211962916,6.0,1013.002603400514,2.4440774224035984,2.1614094002760145,2.072294300883114,0.10624215561366929,-0.9545093494977255,N,
1.2055429578943,0.0038958618421758504,284.0,13.573685211962916,6.0,1126.935272013866,2.5079470467729243,2.1817132850942755,2.6286640688918372,0.18328392905335014,-0.139565170596061,N,
1.3005178676233178,0.004294243544264088,292.0,13.573685211962916,6.0,1330.0995930088266,3.708250074133562,3.039407575113747,2.044835140442836,0.06144939613525189,-2.0387228818973853,N,
1.1867898007485793,0.003933955455290506,294.0,13.573685211962916,6.0,1103.1377745597822,2.2828990852767843,2.1384487100995635,2.7146720391705603,0.21231494540962842,-0.057103097838513514,N,
1.1229473160309142,0.003645890339549889,298.0,13.573685211962916,6.0,1021.562568309274,2.2991065447428785,2.1580140361766196,2.1971625859457258,0.14224931812248665,-0.7306818304855494,N,
1.2206227718798046,0.0038676204589164183,304.0,13.573685211962916,6.0,1217.2758279461568,3.0424814790218555,2.6388336184992203,2.3121799278675885,0.10823646545103119,-1.645814523191956,N,
1.3558482032732622,0.0044545045014826,290.0,13.573685211962916,6.0,1791.5209043023638,5.188859719471685,3.9171450163479182,2.7871263663708032,0.03459860975041422,-3.5289687732892983,N,
1.1783325084441407,0.00398486491023501,279.0,13.573685211962916,6.0,1013.3929421764085,1.9867761161259339,2.142201280412363,2.4515363963410475,0.20469059293378317,-0.4385144120318142,N,
1.1526024110633304,0.0038882673327242587,288.0,13.573685211962916,6.0,974.7818140119881,1.8676040734965718,2.078229359616106,2.3001046437749695,0.2511918954413717,-0.13808505551152006,N,
1.22458025560062,0.003953095399218809,284.0,13.573685211962916,6.0,1207.92105595878,2.9913915982641726,2.545386835090932,2.3747847290766937,0.14124309976697025,-0.7518046074391472,N,
1.2584758857432565,0.004274456444048941,309.0,13.573685211962916,6.0,1345.747509603652,2.9583133106811195,3.087236354098086,2.7734697184883434,0.14163598017228746,-1.2307189202436402,N,
1.2045476628106817,0.004011920021672167,303.0,13.573685211962916,6.0,1229.8538384645115,2.7561412943068246,3.2465402590663768,2.1162939797937748,0.08075176191331268,-2.5259861979768856,N,
1.11802964154359,0.0037350125473671132,297.0,13.573685211962916,6.0,1002.3397995739077,2.3403082241004105,1.9557946466003746,2.27000023776752,0.127991531088077,-0.5103817592471397,N,
1.188884671742357,0.003921384938879141,289.0,13.573685211962916,6.0,1190.3331414093034,2.9333257999156577,2.3454641519985153,2.555071203480928,0.10324666329785709,-0.7205900787431732,N,
1.3494362452988713,0.004345663446889887,301.0,13.573685211962916,6.0,1492.79299957311,3.5611527783015493,3.086686732241402,3.0888110378906823,0.2013539897121734,-1.235014947295195,N,
1.1696083848248946,0.003954284080157937,285.0,13.573685211962916,6.0,894.8200371385876,1.559756166523719,1.5002483016794632,2.501802414080724,0.41188525784875024,0.38365004545665415,N,
1.1968015949904902,0.003991116800122302,284.0,13.573685211962916,6.0,1267.9311837461948,3.214123120292051,3.1691613953358595,1.9831616163387897,0.10057013837013937,-1.411102305646713,N,
1.2140086875098512,0.0038705431879627198,294.0,13.573685211962916,6.0,1164.6809942949017,3.0878745661715845,2.452204626287491,2.1783948895883483,0.04643150358675877,-1.4672794357238244,N,
1.2967342128696755,0.0041687910059420045,305.0,13.573685211962916,6.0,1401.0423530362837,3.8312121322017685,3.1432667561847754,2.2833957683165993,0.07257640606608057,-2.454297160937554,N,
1.1606066322492221,0.0040560961725880544,317.0,13.573685211962916,12.0,1095.7721387718445,2.6263321291392225,2.5558069311553533,1.978777780310174,0.13806730626605856,-0.8349850550496597,N,
1.1949697251989544,0.003929461548452711,296.0,13.573685211962916,6.0,1005.2784639092439,2.2604678831563514,1.7440259503219255,2.3916722674426714,0.3026329453233182,0.2111426966911129,N,
1.2516781055800006,0.004103841701007739,280.0,13.573685211962916,6.0,1182.6945817172207,2.2107986347607844,2.693034826330419,2.7119863919813816,0.2675539825678012,-0.72759774108913,N,
1.1826989634276508,0.003967907797397287,289.0,13.573685211962916,6.0,1109.8583835078707,2.313628004471872,2.264607775491031,2.6121004661703937,0.19926776853386766,-0.25979485147886855,N,
1.0569116769104658,0.0036004299410872845,291.0,13.573685211962916,6.0,900.3386651344401,2.2173668758761447,1.7729458578785957,1.9121429457037264,0.09202009563817044,-0.3494327967152653,N,
1.1092479169435046,0.003738433393098784,288.0,13.573685211962916,6.0,1019.5678654923315,2.52488972955482,2.135050846110302,2.043850525010078,0.09233561813370646,-0.8537745079494705,N,
1.165928203600664,0.0038854758989120644,301.0,13.573685211962916,6.0,1131.901536899587,2.700396815506622,2.231635664906451,2.4702755728601273,0.12611463426974345,-0.6087634378669561,N,
1.1713835700897894,0.00392117032607819,299.0,13.573685211962916,6.0,1061.9150904923247,2.213828339607454,2.334567019947725,2.3768480403363377,0.15532213424871755,-0.5895017614190766,N,
1.0608859156722916,0.0036126444126159474,297.0,13.573685211962916,6.0,962.2292538210937,2.197704683731663,2.0222551502303157,2.10636573655832,0.08813527830836673,-0.3356351942891835,N,
1.095156179643311,0.003586504421301225,292.0,13.573685211962916,6.0,1015.732702629002,2.570354686734107,1.9942791392857193,2.118964725525933,0.07852042069984691,-0.39515542447620866,N,
1.3046677291251507,0.004247024180861638,284.0,13.573685211962916,6.0,1573.9398542409022,4.319627881853574,3.979701178559037,2.1253863491316425,0.07095057040680075,-2.7964072269426374,N,
1.271972252871092,0.004250246920495446,281.0,13.573685211962916,6.0,1517.3277839470873,4.0796436488648276,3.656772187944261,2.412520503580799,0.00915964965978745,-2.8947866566745732,N,
1.0762410771280093,0.003633290355837759,291.0,13.573685211962916,6.0,968.4268625388662,2.2513943432482812,1.9583824226059563,2.135845611252075,0.1089527815789563,-0.39782674859035055,N,
1.1960340557644158,0.00391609549172937,303.0,13.573685211962916,6.0,1067.3637216301697,2.34431777781119,2.090353983992485,2.45931053952109,0.21761498774310212,-0.16010763817321677,N,
1.2183024507036984,0.0041404443907486115,300.0,13.573685211962916,6.0,1154.6715937540037,2.4684665980842584,2.405606645029721,2.6120121768283013,0.20912903286031112,-0.8162442132272187,N,
1.2627800898246055,0.004171423331363102,299.0,13.573685211962916,6.0,1740.8357228671277,5.123304651130436,4.601760466477624,1.8222212788231453,0.02386840162851813,-3.5165486059538815,N,
1.1027990272867396,0.003663929742631458,289.0,13.573685211962916,6.0,956.0300614681404,2.4005996233175986,1.8878201043207972,1.9789247613989078,0.10495674194587928,-0.2483099333217939,N,
1.128452773857912,0.0038269795212926895,281.0,13.573685211962916,6.0,1095.926887211959,2.6132166684856384,2.515391605278827,2.0540805094473575,0.10839190021263011,-0.4613433603302749,N,
1.1366808225833411,0.0037471837909280967,287.0,13.573685211962916,6.0,997.1478113450772,2.298404690808134,2.043180741469897,2.087309274581692,0.21951068484439457,0.13634926115215337,N,
1.079272617822242,0.003617124743290171,281.0,13.573685211962916,6.0,1054.2647112523628,2.8468765095215702,2.4665978860064723,1.6677889529232088,0.033071159317126175,-0.6415314867062164,N,
1.1565589591987597,0.003771994763261423,285.0,13.573685211962916,6.0,1058.443535267032,2.7818924120641175,1.9833566990014417,2.2196723326881043,0.07570339358363257,-0.46744285159804644,N,
1.2259552768259767,0.004019684232473898,308.0,13.573685211962916,4.8,1267.5697499427229,3.1210304668405584,2.6822004344764605,2.5700330919325807,0.08175594180853907,-0.9077828176330954,N,
1.2364383729565216,0.004076436559230135,305.0,13.573685211962916,6.0,1325.583214984852,3.3382026288844573,3.2100806273401385,2.2055463727202023,0.07917260121407664,-1.579593280569714,N,
1.0738905800467171,0.003522257771843153,296.0,13.573685211962916,6.0,897.74650725614,2.0027280221757704,1.654381657859069,2.14598437028427,0.1668738492834742,-0.19129389467133373,N,
1.1329027025825034,0.0037787877415929655,282.0,13.573685211962916,6.0,1012.1298980853406,2.298536787011917,2.0844635891267957,2.2351741496613937,0.1215675562206784,-0.6521343816298063,N,
1.246406672253381,0.004061555216270485,283.0,13.573685211962916,6.0,1120.9661181663425,2.6106238172607936,2.0305063234836123,2.580000058630885,0.25056544092401767,-0.1895245201375941,N,
1.1491575220609944,0.0037871676728172153,283.0,13.573685211962916,6.0,996.8301930240834,2.435242269261485,1.992254380983259,2.107757411568564,0.09678802619757457,-0.7458105905404924,N,
1.0596295431233638,0.003531897781047161,294.0,13.573685211962916,6.0,990.247531371098,2.338847876144321,2.087372668937329,2.092099050315351,0.0748621390426675,-0.4369134610324391,N,
1.1770761905166145,0.003967175634470065,292.0,13.573685211962916,6.0,1223.6345882164806,2.7990727568588687,3.0721241424060675,2.205217245265466,0.07421619889406916,-1.9547960304582357,N,
1.207560863022458,0.003990858481382114,305.0,13.573685211962916,6.0,1101.1088313875448,2.629253526325538,2.1289279095189713,2.524117608808818,0.06000358621236729,-0.7392354628768466,N,
1.1330273199232952,0.00375044387653537,301.0,13.573685211962916,6.0,1006.1755220713321,2.233695042412069,2.355355148669106,2.035186578333665,0.07521454323036962,-1.049171656317572,N,
1.0909544343432482,0.0036100043367373836,292.0,13.573685211962916,6.0,895.4133290419368,1.6915004707530434,1.7977208694630495,2.273738214382848,0.19369292675929567,0.30991851609322923,N,
1.1562173694623026,0.003807730815700058,281.0,13.573685211962916,6.0,1010.3123090406689,2.4052378333722193,1.9857682299247763,2.2213409893849647,0.12275740502901508,-0.3431227337898893,N,
1.2199273726807283,0.003964883372317648,279.0,13.573685211962916,6.0,1071.3290839806143,2.092162926398723,1.8991672696271666,2.813064708112105,0.3236009826244849,0.22260284987225087,N,
1.0877031754599649,0.003609556124506365,282.0,13.573685211962916,6.0,895.7277494411032,1.9905071274666486,1.8252607697763,2.054949633558295,0.09544484362576496,-0.1267072962645514,N,
1.1545995806916791,0.0037541799833418227,290.0,13.573685211962916,4.8,1057.7500578059319,2.624620138502682,2.445551197543314,1.9031101391768532,0.0685768243426117,-1.1519169477752336,N,
1.1646820951726535,0.003820497987149293,303.0,13.573685211962916,6.0,1144.8380492835793,2.7957877927694885,2.3983368158116685,2.374361913497876,0.06419717472760648,-0.7686789408301326,N,
1.2090211911409368,0.003966685354193372,297.0,13.573685211962916,6.0,1233.4099587272026,2.6216971927930626,2.8709646024264526,2.5839467284648476,0.1346364413315633,-1.1986276016240092,N,
1.118858200717001,0.003691618029780965,292.0,13.573685211962916,6.0,925.619343554352,2.1123541749286447,1.6512581470665189,2.2143879823375223,0.16577978522731895,0.005917815003048435,N,
1.1445929328265043,0.0037849491033048258,280.0,13.573685211962916,6.0,1022.8381308466536,2.4573175712222213,1.878375419256837,2.2807317769146023,0.15973498164724753,-0.3529861068578209,N,
1.407064924119984,0.004607610820678719,288.0,13.573685211962916,6.0,1957.7110708561866,5.75799589217539,4.544093048238058,2.6971268355495988,0.0179461378225539,-4.021916911409693,N,
1.1885093561187001,0.0039723513364429775,284.0,13.573685211962916,6.0,1042.1416553014892,2.178604766175355,2.213961819215881,2.411540818208805,0.15144664657696605,-0.9253077376758234,N,
1.120680500113371,0.003677842318808503,288.0,13.573685211962916,6.0,1012.8992971905229,2.1941804677357872,2.21197261990381,2.2248161865986114,0.11978902242541997,-0.48582387963141843,N,
1.207232162304391,0.003968124786425507,295.0,13.573685211962916,6.0,1344.7771672880256,3.344999175851231,3.523282295725244,2.0621432530574424,0.051874661476793225,-2.049830799964216,N,
1.201302129733784,0.004166015922899364,308.0,13.573685211962916,6.0,1251.5391400944898,3.269575908996096,2.679808742236264,2.3579607280400183,0.03803302721676558,-1.0162640193369636,N,
1.1308577693309492,0.003782792271758107,298.0,13.573685211962916,6.0,1011.5950251912946,2.4820601869152763,2.1147756178997406,2.060895215615774,0.09308130417161019,-0.7684603902352044,N,
1.114450562622869,0.0037566952158697535,284.0,13.573685211962916,6.0,1003.0039036301673,2.2221151649402495,2.0912409140718538,2.2325279763112635,0.1491609252753438,-0.6328913890964483,N,
1.230619547247984,0.004034336576185105,282.0,13.573685211962916,6.0,1232.2778745241046,2.5998140725063976,2.396360011045131,3.0353707827000678,0.17955655569529674,-0.33251801936104197,N,
1.2149766873125403,0.003937330064746445,285.0,13.573685211962916,6.0,1234.5383824996659,2.7719710145866414,2.829824216514972,2.52296908293009,0.10497247825049648,-1.6748692532254819,N,
1.0987714672370932,0.003718257621271195,299.0,13.573685211962916,6.0,924.2129638636767,1.8590477976273445,1.7133714268681113,2.4179444572335287,0.18843903199144021,0.07378111270621665,N,
1.1929788035390143,0.003979957418593078,297.0,13.573685211962916,6.0,1388.2583524763527,3.9392034902713458,3.4496846223702384,1.805122921419282,0.06009767997239517,-1.6103229775749959,N,
1.2487880054965825,0.004128957456563358,299.0,13.573685211962916,6.0,1366.0573361452407,3.4789865838163077,3.128398384420686,2.445932648982953,0.039404593680838665,-1.6898149993615734,N,
1.1869151657393409,0.004058943042793544,299.0,13.573685211962916,6.0,1206.6390885192895,2.473361109721235,2.7806582069765806,2.670263426437207,0.1131840349561234,-0.8687969427375215,N,
1.059394186151071,0.0036582310269442047,295.0,13.573685211962916,6.0,930.6528450399941,2.170052853720039,2.0062066532076344,1.9575709343028465,0.06802432698502335,-0.7444184168372848,N,
1.0874382227751298,0.0037289804836566514,288.0,13.573685211962916,6.0,973.6191694434184,2.523107624477914,2.1548448960965167,1.6901373866986675,0.12404335286110843,-0.6782602034095903,N,
1.2432806331694934,0.0041327979119358624,280.0,13.573685211962916,6.0,1127.6879206370952,2.24450762540771,2.2729177910713996,2.6786467371359004,0.32693849946781167,-0.34531308157271534,N,
1.2837715666445275,0.00423814348079249,286.0,13.573685211962916,6.0,1560.2412688420243,4.053410474776631,3.740795892129228,2.6164222481904256,0.0012073289992684318,-2.5037297737949085,N,
1.175040293884869,0.003977246607375805,293.0,13.573685211962916,6.0,1279.0617384748057,3.0465503158789233,3.1882351297428575,2.252013120338834,0.05254290951325495,-1.4182147075534073,N,
1.2169276305133783,0.003950282395005819,309.0,13.573685211962916,6.0,1119.6336544292824,2.5840696113304427,2.2470632360780485,2.412128400680957,0.2218456606837632,-0.5112600404379114,N,
1.2336093653661115,0.004119560410744054,305.0,13.573685211962916,6.0,1231.9638203023478,2.7847087277570077,2.416661366936202,2.810873940470675,0.18527745303143472,-0.6804115939038352,N,
1.1018309505098767,0.0036658796256875386,292.0,13.573685211962916,6.0,956.1657871293546,1.9840708170515469,1.8187815529680105,2.418326723194743,0.14107015683878227,-0.1899383953968421,N,
1.1784199936443074,0.003839640921641422,286.0,13.573685211962916,6.0,1064.6705664918695,2.3580512735614225,1.9112928146070896,2.59068670818191,0.22627928486753782,0.32132320644864243,N,
1.2233779751588194,0.003989077490230439,283.0,13.573685211962916,6.0,1136.9483208165507,2.599849208723243,2.114895115497543,2.7258813137935145,0.13926581485971337,-0.8705905242878329,N,
1.1894078746441277,0.003972861646949342,287.0,13.573685211962916,6.0,1233.7986243777611,3.355894615840458,2.8659826857723716,1.9559443388777447,0.05080631819677127,-1.8899606420282282,N,
1.1296272350624972,0.0038269982452044846,292.0,13.573685211962916,6.0,1240.801719789698,3.6451915593171034,2.851106064611586,1.7456159718974453,0.029852718678424393,-1.7531577857371317,N,
1.21522063153732,0.004136143486027568,297.0,13.573685211962916,6.0,1360.11594175279,3.4057632715536683,3.1659189365303133,2.4439488648193692,0.05342358301274198,-1.39010127917637,N,
1.3753743176992594,0.004647599107861704,305.0,13.573685211962916,6.0,1945.8583074561707,6.237805705901816,4.6679943606548,2.0134622167222727,0.055043991350651474,-4.672548552496193,N,
1.206097924380786,0.0040570311342126445,307.0,13.573685211962916,6.0,1260.2137003759715,2.927465050965971,2.842330146825918,2.6186302300230984,0.04843750645861575,-1.4961436192236937,N,
1.2053668760491367,0.003953345011478855,291.0,13.573685211962916,6.0,1350.2218220110153,3.49438865072764,3.0750292168913997,2.37071666963574,0.06393960327268303,-1.3025566176610712,N,
1.202318342021861,0.003885987577595949,276.0,13.573685211962916,6.0,1082.4131593972947,2.40055769622732,1.963174008399536,2.649586685326592,0.20212792742006824,-0.27597702997288576,N,
1.3224827588532286,0.004274851187964295,288.0,13.573685211962916,6.0,1651.5977921731333,4.280346794041547,3.697199202083138,2.965028483576608,0.04942044810172273,-2.1448545206860237,N,
1.1489221451121208,0.0038764499135600207,289.0,13.573685211962916,6.0,1005.7513743208832,2.3796174664043557,2.3215507225322423,1.9130368357356333,0.11435887929985722,-0.3381041420513641,N,
1.2183006573907782,0.003934926861542117,294.0,13.573685211962916,6.0,1197.2837705554086,2.872297630509401,2.6134107312843082,2.347604332270323,0.15833820726873715,-0.8393327828246715,N,
1.261437211633768,0.004254342635308359,301.0,13.573685211962916,6.0,1365.3129176868863,3.0243786165469086,3.073752763964474,2.868784767485345,0.11295747476970322,-1.412511758997501,N,
1.254765937075861,0.004205271927970406,295.0,13.573685211962916,6.0,1151.2411563809048,2.497500768439761,2.174520701010454,2.738468957910554,0.2680316671930675,-0.5828839921041187,N,
1.1198486380530361,0.003833364961365462,298.0,13.573685211962916,6.0,1081.298351052042,2.267042336896667,2.347711617304925,2.5027641175762914,0.0895269226713324,-0.49741449772637675,N,
1.1727324391244878,0.0038858633046388253,287.0,13.573685211962916,6.0,1077.7649061398545,2.2346716838776994,2.1237669180970067,2.6212906180028535,0.19548288411460416,-0.3924285541679296,N,
1.2527802476468748,0.0040889936731156006,281.0,13.573685211962916,6.0,1255.9726112038663,2.9437022489572504,2.218320112091182,3.036415873364678,0.16848236068947697,-0.5365074973095534,N,
1.1755460091811356,0.004020221897838925,280.0,13.573685211962916,6.0,1096.837049007126,2.1970950479872284,2.1039676673849477,2.807542654326561,0.23331286698263975,-0.25320578927522275,N,
1.281884367823162,0.0041829981685450185,293.0,13.573685211962916,6.0,1570.2762966346481,4.7942578897232115,3.8092430294629924,1.8332755735530881,0.023670983530691855,-3.3384395285994435,N,
1.2304397276852288,0.003974181810669116,296.0,13.573685211962916,6.0,1215.9896267250178,2.603388278179016,2.762071391932342,2.588187415685885,0.1469219316046558,-0.8141310601884075,N,
1.2400612898979897,0.004084676391670604,311.0,13.573685211962916,6.0,1239.284906988694,2.7631098334478934,2.5899187160457915,2.737986732463673,0.16650831143382622,-0.8029950215821506,N,
1.1333749928578756,0.0038797441600761594,299.0,13.573685211962916,6.0,1007.8973578109416,1.8440217099580918,2.2199731202267845,2.477225067360612,0.17063805979017702,-0.2732734734486118,N,
1.1225306358077247,0.0036936578348882964,284.0,13.573685211962916,6.0,954.7759598625522,2.1586874902836386,1.7867383240950594,2.2677158289809487,0.14431671520023331,-0.1779761721685829,N,
1.2033179951648065,0.003990364776342088,283.0,13.573685211962916,6.0,1127.5245641007596,2.7619206234219953,2.2743580123037423,2.3693012275798315,0.12064723864649085,-1.0819589544458135,N,
1.2053324796240423,0.0040039498630081456,289.0,13.573685211962916,6.0,1111.0906097578888,2.3905355050850243,2.108442192514465,2.7051307400912883,0.1972534193988501,-0.3877336599748097,N,
1.0942714393123083,0.0036567241955381973,285.0,13.573685211962916,6.0,943.9447949158381,1.9099854474661233,1.8741715497581153,2.416185269576919,0.11374888536101085,-0.3759522779525897,N,
1.1530302435326916,0.0038337252541408486,295.0,13.573685211962916,6.0,1209.578148616603,3.200897372253685,2.835813560463103,1.964644793594051,0.06325509022569066,-0.911134961028671,N,
1.1977655355131585,0.0040045136759655564,299.0,13.573685211962916,6.0,1105.0922280643229,2.623254514343531,2.195126152532101,2.3804606954936274,0.18509288735102397,-0.8861139905040131,N,
1.1606224550535538,0.0038707213747776704,302.0,13.573685211962916,6.0,1103.8513103402283,2.4937279159808896,2.425732861292201,2.3076956678337077,0.1383711484094897,-0.6156514533817554,N,
1.0661001057016928,0.003607616904765564,295.0,13.573685211962916,6.0,943.3451639444916,2.2129618232930994,2.1245249616624595,1.9325581500275093,0.04219718752608023,-0.37780288710634696,N,
1.1209400279712003,0.0037783196013826932,278.0,13.573685211962916,6.0,1001.9487178672239,2.1437301506755193,1.9204919734768091,2.393918081146641,0.17630291614349594,-0.23262241440991535,N,
1.1817853195812076,0.0038945063310014904,271.0,13.573685211962916,6.0,1039.6303719738733,1.952300788531717,2.0234111659306286,2.70545114945539,0.2456615554794252,0.11666205249580099,N,
1.1539933481602618,0.003939555938135406,286.0,13.573685211962916,6.0,1051.3296628163062,2.0275268035480427,2.2348832635308935,2.5712936891699845,0.17418018289766893,-0.594637331013293,N,
1.129643762210969,0.003708746455242311,295.0,13.573685211962916,6.0,981.6002785454565,2.404602580611161,2.1126331400487026,1.9287415978936369,0.08156980989729151,-0.7629665617017463,N,
1.1856201993746438,0.0038981399790187824,293.0,13.573685211962916,6.0,1094.0744962323433,2.576333074188599,2.0743052311760795,2.433716284741852,0.20636193209058257,-0.024187645488373703,N,
1.2363801719611924,0.004126195575594176,301.0,13.573685211962916,6.0,1489.4159399879734,4.4944042782709,3.4394034463678973,1.955037060853652,0.022021922412182742,-2.3443399870115806,N,
1.111521498493398,0.003804627191623921,296.0,13.573685211962916,6.0,925.0245836542692,1.5753052953237394,1.9211984791011536,2.442682282780142,0.22918180759879744,0.18493886393189451,N,
1.138411157375459,0.0037697443687756405,282.0,13.573685211962916,6.0,990.9438550118228,2.4115315245153304,1.9710970723841044,2.10184930236057,0.12621614020315097,-0.45289944483377237,N,
1.1913567461489394,0.0037942695724390257,267.0,13.573685211962916,6.0,1095.0043880457808,2.66009959484784,2.2627408378589795,2.340210583267834,0.03800443669188003,-1.0521283592893753,N,
1.254420067089129,0.004251362390056818,290.0,13.573685211962916,6.0,1528.8134918700844,4.279089365387925,4.53320842610339,1.2025910094105994,0.17842069035704827,-6.154007438894518,N,
1.2281937349001957,0.004090977363124895,291.0,13.573685211962916,6.0,1562.1791467566388,4.908168026170722,3.7725922557861082,1.6937315512831868,0.03777152800049409,-2.9318378452558758,N,
1.167845587555298,0.0038071913365249777,299.0,13.573685211962916,4.8,1193.3887086132254,2.91744618926411,3.014782569985229,1.9631657812882704,0.06773050536914037,-2.1868049139865513,N,
1.2051299295542086,0.003948683808358175,311.0,13.573685211962916,6.0,1163.6540730163056,2.6496754035377763,2.305889072305005,2.62431111154486,0.1664917742942205,-0.2717800285358227,N,
1.1392595427899164,0.0037964275678329163,296.0,13.573685211962916,6.0,1070.1173771586814,2.5447388204134174,2.2944363355601296,2.25111583500765,0.0547677278922887,-1.1183388708828017,N,
1.186099190167957,0.0039009995488922065,289.0,13.573685211962916,6.0,1272.8619014197122,3.3066392974129655,2.780472228997852,2.390440350205131,0.008229836854949091,-1.7579648864151334,N,
1.1418929228365824,0.0037611702699715485,279.0,13.573685211962916,6.0,976.6325611250451,2.2854843673860565,1.957613203082853,2.15520136978238,0.12514486730169908,-0.24652721807159353,N,
1.2269992252412703,0.00416403973597492,284.0,13.573685211962916,6.0,1285.683590143788,3.494150323352958,2.6515930760050574,2.365429229760945,0.04874563071301068,-1.490046906189369,N,
1.1649364725696345,0.003917689253071359,288.0,13.573685211962916,6.0,1089.2706991329978,2.4217610930965456,2.1583946748396663,2.5659803094136424,0.12729510437600908,-0.4535451077630232,N,
1.1645574519606237,0.003796249970397168,287.0,13.573685211962916,6.0,999.3058888246627,2.1977772573308454,1.9979909724036395,2.225631748339111,0.23865314415766856,-0.054035243816944765,N,
1.1334138444576365,0.003761281433932027,293.0,13.573685211962916,6.0,1027.4999393366309,2.297537565683807,2.11243863420507,2.266938762694944,0.15932024916502086,0.05341936119083463,N,
1.1814019579882935,0.0038710802461821656,304.0,13.573685211962916,6.0,1190.463051085469,3.107758205839925,2.5256619938746954,2.2481063563130532,0.03702921500520705,-1.1253700838986287,N,
1.0868648313266431,0.003569900071638556,297.0,13.573685211962916,6.0,873.3062351818633,1.88417270016453,1.5814386938115992,2.1966680428026746,0.15949130032702158,-0.18772399141674395,N,
1.1350702248814348,0.00383934687832612,280.0,13.573685211962916,6.0,981.6132513514779,1.8474646103954182,2.0222573172802596,2.3790677765203014,0.28769543257834335,0.4133616614016149,N,
1.2689205475280587,0.004196332122211365,274.0,13.573685211962916,6.0,1376.410964916592,3.421392734052974,3.275128056155308,2.3830480869798367,0.09217466646560415,-2.663934585502288,N,
1.0395646592488574,0.0035590404649773096,281.0,13.573685211962916,6.0,792.5075634623201,1.5778574220668073,1.545882542991406,2.0164685671709472,0.1487259958671694,-0.016139278102243953,N,
1.1009530218612977,0.003635245684699468,278.0,13.573685211962916,6.0,1025.3443530629804,2.148641349617032,2.3439683266696054,2.235394951114549,0.09715223816843432,-0.5321878579774038,N,
1.1567147321274376,0.0037637594663699207,297.0,13.573685211962916,6.0,1071.6008134719782,2.8045935119041694,2.2992644216664013,1.936995832754269,0.11280430084733592,-0.900200081247642,N,
1.2444343810977343,0.004154116114457069,298.0,13.573685211962916,6.0,1592.1180297912567,4.763973405168896,3.8180562939025746,2.0410399305733016,0.0036365805750373436,-2.3111537620526117,N,
1.1582524363325428,0.0038909425456388454,287.0,13.573685211962916,6.0,1290.4868737798176,3.4433048339956986,3.092028787244994,2.0784943378195777,0.02788167441779591,-1.9860187794571573,N,
1.1282963609004708,0.0036891539512350913,283.0,13.573685211962916,6.0,972.395205257093,2.295882299766811,1.9208585823928668,2.0907321751391756,0.17441120129145327,-0.08995014477951964,N,
1.2081119409658323,0.0039198622958376865,283.0,13.573685211962916,6.0,996.336553363093,2.330841076388751,2.063156666535153,2.0639888304026335,0.15174901303813237,-0.7538791092778167,N,
1.2460656158408614,0.00411856478107373,280.0,13.573685211962916,6.0,1103.11558387913,2.454933596529851,2.265630753101068,2.4630131810666516,0.15135238614851773,-0.8409806744588437,N,
1.134582438036902,0.0037706313910252903,275.0,13.573685211962916,6.0,1008.5487929186188,2.044791515451457,2.031048211026998,2.4952780174496,0.16811080502875766,-0.1025074344598626,N,
1.1448798949826444,0.0037576432105425324,283.0,13.573685211962916,6.0,1162.0105684207917,2.887333275095052,2.638928191821861,2.121304539823365,0.08415321861877685,-0.9615372840943429,N,
1.1977459615557664,0.0038962712670232856,295.0,13.573685211962916,6.0,1187.5727727956682,2.961537292987272,2.5024505144505667,2.327952351155324,0.10838542210607616,-0.5388878850453651,N,
1.137240794381216,0.003841105670823078,305.0,13.573685211962916,6.0,1125.2707653738298,2.667623006658138,2.3789468739788164,2.3597475392290126,0.09658318272521514,-0.5873709107272908,N,
1.1910385820325446,0.0038738195957475556,291.0,13.573685211962916,6.0,1114.7654747075867,2.600251136044329,2.4220360118676667,2.2563974833956317,0.14309662183919636,-0.709993149210771,N,
1.1465589338488678,0.003790745186170663,277.0,13.573685211962916,6.0,967.5514938444798,1.937101719618807,1.6882510310578842,2.5518286782875665,0.25114189220097827,0.2435083058045188,N,
1.2098758638498577,0.003977501260729728,280.0,13.573685211962916,6.0,1131.0585240396106,2.6176313096704775,2.0535348982434996,2.6628318181285704,0.190772201196024,-0.46168367652684494,N,
1.1170611589852715,0.003829946437256559,284.0,13.573685211962916,6.0,989.0968729385785,2.1226020831994457,2.170389369419669,2.2407634353686072,0.06479011138926499,-0.7544817502302099,N,
1.0764189113826594,0.0036336374170004497,284.0,13.573685211962916,6.0,1059.8055282802302,2.714626825076954,2.478020648706246,1.8030088481813857,0.0638524087923994,-0.4633539087722433,N,
1.1702339102585397,0.0038482223397796607,287.0,13.573685211962916,6.0,1107.4418882955658,2.879579458987502,2.257622184634399,2.1014298022809217,0.1410084464828519,-0.6518069550224946,N,
1.213748404537233,0.003946854538921796,295.0,13.573685211962916,6.0,1175.3768686788917,2.6853210446500753,2.2780690078937424,2.686029027505322,0.17270896619257864,-0.4586596637038497,N,
1.1123307924128232,0.0037965947776152057,295.0,13.573685211962916,6.0,1025.3560891473921,2.156052068168239,2.131493659813142,2.459260239616943,0.1285128055318681,0.047959581499657365,N,
1.110170591578004,0.0036978503818791125,290.0,13.573685211962916,6.0,904.0879986612315,1.9501808062344732,1.7257656072262644,2.105542099094709,0.2476064884664344,0.4384053583867498,N,
1.104581467984824,0.0037205023018360645,278.0,13.573685211962916,6.0,949.5850620941656,1.8650917111951926,1.867855192183212,2.407876578160223,0.19641894046127112,-0.07153704844037008,N,
1.171820554238047,0.003897493577132897,278.0,13.573685211962916,6.0,1036.6000356715924,2.4313773440416657,2.0331981940968356,2.3324938615412587,0.11326202931129095,-0.6954104957003179,N,
1.106167988184915,0.003622591054369123,279.0,13.573685211962916,6.0,871.0520148448817,1.520230541051369,1.7569324249383875,2.2819125758598875,0.24846316697627757,0.2548936377237512,N,
1.083983039306325,0.003701773849631377,290.0,13.573685211962916,6.0,1048.5970893251492,2.49894371033066,2.3829374775726273,2.0514530744229797,0.051291168013160665,-0.8856969818585477,N,
1.1337593315229175,0.00373916758189514,291.0,13.573685211962916,6.0,1081.9679757164515,2.892676777374976,2.3872781550448234,1.8660189722822231,0.060299338883015384,-1.242774852761198,N,
1.1184784426353656,0.0036517301991241783,297.0,13.573685211962916,6.0,1088.0992540921688,2.781986493823691,2.2189488266535298,2.1706887957353795,0.07410151404614737,-0.5291478091921332,N,
1.045115831083713,0.00345658139687265,288.0,13.573685211962916,6.0,898.7188870869813,2.1109578965613243,1.8537874320923975,1.9602669926402456,0.054105741366339936,-0.24048748838531556,N,
1.1007282677767982,0.003649943794595533,277.0,13.573685211962916,6.0,1073.5574680456302,2.5292082992513016,2.350936603583949,2.1969301907238896,0.06789335235299003,-0.9656738490606511,N,
1.150885366679221,0.003758689518436562,280.0,13.573685211962916,6.0,991.6520408829799,2.155204325776806,1.7902724456168655,2.432387813828879,0.2165006481453981,0.19319214132727575,N,
1.117330167510304,0.0037240195121312006,279.0,13.573685211962916,1.2,995.226381306805,2.0685899648788437,1.9700387332652332,2.429469829763957,0.14095454102074606,-0.5686446258040917,N,
1.1395861695383407,0.0037330294572611887,282.0,13.573685211962916,6.0,1452.7874143856043,4.513319894246072,3.5204666285172412,1.6564785164771472,0.013985453871806736,-1.6382423075721357,N,
1.0485127063293733,0.0034526803492445457,282.0,13.573685211962916,6.0,944.221468621525,2.4363781369571247,2.084487934168679,1.7284880749131861,0.047761796071241105,-0.8249703584797585,N,
1.1164565462505558,0.0036981084140711353,300.0,13.573685211962916,6.0,1184.9998685723406,3.2057503017698465,2.8990222772182417,1.7472853118307585,0.035013950458244195,-1.3983638458836527,N,
1.1922591988060414,0.0038600227640787446,295.0,13.573685211962916,6.0,1097.4460388395726,2.633830488097143,2.206563013624549,2.307870896398109,0.174653738559214,-0.47095386165877,N,
1.2210398252412324,0.004042561024396721,282.0,13.573685211962916,6.0,1520.3015754406874,4.813443964023588,3.5841268629750482,1.7283796673308371,0.02599056584236406,-2.7776019341985263,N,
1.094742139770133,0.003674623076582432,271.0,13.573685211962916,6.0,985.1119532137975,1.9934129583104745,2.1102754571167934,2.287849016785751,0.14682701019106142,-0.2087992825939002,N,
1.2342275444649027,0.0039009058440981287,278.0,13.573685211962916,6.0,1204.2388634586546,2.8150076371499173,2.361161916878793,2.675055573177393,0.14519117778557447,-0.7833376380069965,N,
1.0855303704648431,0.003734168308661878,282.0,13.573685211962916,6.0,976.6855087456662,2.0381169308323113,2.250409566132607,2.1093326825125702,0.12391960090466919,-0.42770193147189967,N,
1.1625919517348058,0.003782667346640557,285.0,13.573685211962916,6.0,1387.310071009184,4.105068682208827,3.568027726044421,1.5930505090021123,0.007571831880857605,-2.5517858489923384,N,
1.1022328003827528,0.00373905905433232,292.0,13.573685211962916,6.0,1101.3094959250254,2.5782554689701236,2.550427326649583,2.1978090036153732,0.03583856763750689,-0.5951352215530002,N,
1.2003628708497098,0.0038376851702176407,298.0,13.573685211962916,6.0,1071.3624557447795,2.5956989606703957,2.0917052721644356,2.2211390442694,0.24061043530096443,0.02424242788207437,N,
1.0743665520287389,0.0035039858734515297,298.0,13.573685211962916,6.0,935.5680701774284,2.023033400530238,1.9317094600492326,2.193660256534782,0.1055809301652548,-0.03147905466851014,N,
1.0821669441557378,0.0034827711150627167,289.0,13.573685211962916,6.0,929.1318713558345,2.086696894762634,1.8351702155931415,2.079131797157207,0.16769804011288802,-0.1806943457512578,N,
1.1703374463677034,0.0037745978005857624,277.0,13.573685211962916,6.0,961.2231110238873,2.1411202010351644,1.8530493056557424,2.2016518649907577,0.22038264035825575,-0.14269763530719923,N,
1.1301989145786961,0.0037985355006507015,277.0,13.573685211962916,6.0,1040.0798574484609,2.4429032363802743,2.1384431226623026,2.2545124127659975,0.08857462281584688,-0.7407798704278568,N,
1.0304946191533122,0.0035995620419326463,288.0,13.573685211962916,6.0,843.4750661392752,1.8234839471427429,1.9538963600410362,1.7998073009140774,0.06846834172008029,-0.3846225774779333,N,
1.1644946942277903,0.003791911737292254,295.0,13.573685211962916,6.0,1361.5293192174297,3.89165940742806,3.5143810705556646,1.652013964533403,0.04773723036799422,-2.2301512702757553,N,
1.209030179895429,0.003960316534661933,302.0,13.573685211962916,6.0,1585.2928251280891,4.69945473209356,4.317941374607527,1.5596105537085903,0.00495992126932962,-3.1760579046121635,N,
1.1559764753033883,0.003764139624292958,301.0,13.573685211962916,6.0,1029.073718563975,2.5565154104646215,2.1042770937933573,2.1151876432007892,0.08328095033899051,-0.684635853127801,N,
1.068524207889916,0.0035323775441142595,288.0,13.573685211962916,6.0,841.5363214597135,1.8176859025437178,1.6908649249396555,1.992647105598318,0.10519492574089312,-0.17363538349747326,N,
1.0398280804322213,0.0034667513286462566,286.0,13.573685211962916,6.0,933.2794732931103,2.1869183200501956,1.9741507029475733,1.9707155459357655,0.0837015008975021,-0.4073600577008849,N,
1.1038423227285372,0.003691235021342105,288.0,13.573685211962916,6.0,1007.4560046795996,2.350428746507153,2.1914620578843977,2.1165221773143235,0.04409689879919702,-0.7512322257428232,N,
1.1644328640269102,0.0037902046164222905,284.0,13.573685211962916,6.0,1144.3681521032331,2.973936932882466,2.6083723156075593,2.0060240108905196,0.04719994769075633,-0.967635962695619,N,
1.0815603708585746,0.0036109934119552775,284.0,13.573685211962916,6.0,1078.0426970655458,2.745192582401982,2.641666803808233,1.742589973043126,0.049586090115762954,-1.4942805629520255,N,
1.1445996922665098,0.0037664195016797555,300.0,13.573685211962916,6.0,1223.455555810672,3.280759677069851,3.078174527876588,1.7274415111538166,0.06309623401573887,-1.4955001237977417,N,
1.1350121753358797,0.0037401889060949107,304.0,13.573685211962916,6.0,1069.2523827872283,2.790926396113558,2.2672525026912997,2.009788444717166,0.05412694542417136,-1.0061345904055217,N,
1.1835850583138348,0.00398944799288015,303.0,13.573685211962916,6.0,1692.2555863070081,5.476376090888453,4.510745521539478,1.1869476583803589,0.09621330284912294,-3.8362827987725594,N,
1.0201717849414618,0.0035325181066290802,284.0,13.573685211962916,6.0,840.4639759423064,1.7616226103455024,1.8535066796793982,1.878291045791423,0.11402193044763223,-0.40780974119360675,N,
1.0721097853881656,0.003561299470551125,273.0,13.573685211962916,6.0,869.7843594635847,1.7804617122187452,1.716303219673466,2.1133871231710146,0.17601116981825327,-0.06489809664587275,N,
1.1728714586106155,0.003931386775710431,287.0,13.573685211962916,6.0,1089.081771974508,2.3929439115577233,2.3965112787346916,2.3434277396366108,0.12902026365234054,-0.9748256742871889,N,
1.0547686170148745,0.0035824758457286454,289.0,13.573685211962916,6.0,887.7231780092903,1.9494755463371793,1.941172636246234,1.9467698337002803,0.07458777296415955,-0.4371423327669375,N,
1.1678479350089144,0.003918594069065705,294.0,13.573685211962916,6.0,1133.8398378313348,3.1070722441411256,2.570333738806913,1.7890105673348873,0.08374628360415179,-1.1412307107059139,N,
1.177956774889804,0.0038136690044282507,294.0,13.573685211962916,6.0,1082.795405915682,2.7349936632526877,2.1487937344244417,2.23192556106518,0.0904879721388526,-0.6875307288807483,N,
1.1359022328936788,0.0038378846431643947,299.0,13.573685211962916,6.0,938.4690475711043,2.0017415612241276,1.7377372844536716,2.2562692797408324,0.26015263081735873,-0.23495510943777065,N,
1.0570460946700264,0.0035496076975612633,289.0,13.573685211962916,6.0,883.8015163927917,2.098413801596566,1.775675770010502,1.915775847875823,0.07529697613666726,-0.24535641032591554,N,
1.1468713570964724,0.003755698367404322,287.0,13.573685211962916,6.0,1003.4496918201968,2.2208721303507875,1.941093151679589,2.2531819389807173,0.2567634654104285,-0.18391738481326492,N,
1.2976645952995773,0.004157005382991159,280.0,13.573685211962916,6.0,1759.0011553489974,5.4220126022531945,4.3338282411535625,1.8639307896904453,0.04229156628601584,-3.878212144556778,N,
1.1302772456047823,0.003802131046103046,277.0,13.573685211962916,6.0,1056.9889121590847,2.2980715689390383,2.0629362797108235,2.5679480010663593,0.1304972155251598,-0.6250402200970211,N,
1.2531914579488586,0.004077851021178787,297.0,13.573685211962916,15.6,2149.14482339978,4.88699111170377,11.48182155662802,2.5971064086543256,0.37711871246802053,-13.040227760655506,N,
1.2531914579488586,0.004018027291024809,254.0,13.573685211962916,4.8,1222.8045941608077,2.7473235087677628,3.6605110486823675,1.8662081814791016,0.14181738518415035,-1.8962832783280794,N,
1.162898423629514,0.003758849995440857,255.0,13.573685211962916,6.0,1045.4790830239467,3.054217529982724,2.322711882798751,1.5490559581552952,0.03686595291739887,-0.43909345111683545,N,
1.2229973712324733,0.004097188482954817,307.0,13.573685211962916,6.0,1374.0639869464903,3.0162760454582287,4.56048421845666,1.4949490844049318,0.10104883600916431,-2.853044758520016,A,
1.0936935109747805,0.0038054893358183484,308.0,13.573685211962916,6.0,1072.7112490831832,2.5422543452973247,2.3342981553942606,2.226803225513568,0.0423368808973738,-0.4667634261824869,N,
1.134684346832778,0.003770571199203446,279.0,13.573685211962916,6.0,1124.0713303935431,2.9797834104139618,2.298723849158045,2.1149576199366718,0.08326010387823826,-1.003734500630122,N,
1.2734644189991045,0.0041379091471493695,295.0,13.573685211962916,6.0,1164.2987683001963,2.5263972238870775,2.3084724015417004,2.6540811069249197,0.26805752920965853,-0.5594306130358792,N,
1.13705532352503,0.003875508338247518,292.0,13.573685211962916,6.0,1040.3992758213747,2.4607008396852796,2.229724288784002,2.1446043421952576,0.10818657122217631,-0.626298774630248,N,
1.1301826802375055,0.003685320339817009,292.0,13.573685211962916,6.0,1011.1965029597918,2.477227970240225,2.129642261129977,2.007701577556891,0.130350793340025,-0.5571268069443612,N,
1.128798090661665,0.0037248071506547037,304.0,13.573685211962916,6.0,1041.563455584595,2.7741190529311566,2.224528555143936,1.874442212709073,0.07243292409846247,-1.0879910047639736,N,
1.227641404097485,0.004175310582666079,313.0,13.573685211962916,6.0,1425.3307202580766,4.027184417586841,3.2269609675990867,2.2086002967169343,0.04220404226234234,-2.3602698772270276,N,
1.1024996438788848,0.00361826041624632,293.0,13.573685211962916,6.0,896.429671923396,1.8210711235922072,1.609557350218228,2.335954904383487,0.19081116723624686,-0.05515788081374166,N,
1.154168175397335,0.00378043628305906,277.0,13.573685211962916,6.0,992.884859996235,2.3483439596366327,1.819342481925078,2.245825879918872,0.18404039768929686,-0.20052052956260016,N,
1.1816293419657014,0.0037858054675658065,284.0,13.573685211962916,6.0,1024.3043440041358,2.132846000352723,1.8511829907764414,2.5669588713215217,0.25096399073266884,-0.044482622597639125,N,
1.153446374583003,0.0039227333465484985,285.0,13.573685211962916,6.0,1033.9165857767512,2.412733235316806,1.9246393576538474,2.4007498393410898,0.16779805071723386,-0.5760380562555824,N,
1.0938091374651733,0.0036265862414734474,299.0,13.573685211962916,6.0,943.3934867008818,2.036952265127796,1.9617717364903582,2.1344266061221284,0.14057987124181434,-0.4417759722265024,N,
1.1043337784246516,0.0037337797577229504,298.0,13.573685211962916,6.0,1109.7384292200907,3.1086361360260173,2.358200222027722,1.8825065187034182,0.042337288475335466,-1.1235475717033,N,
1.188075400460137,0.003915514638336181,300.0,13.573685211962916,6.0,1124.8905861887072,2.804920584657411,2.2102442389951125,2.3925056217454057,0.07074301702595183,-0.9951752582609139,N,
1.2230295352219216,0.00395250620125226,306.0,13.573685211962916,6.0,1152.2454265354856,2.859432676260098,2.5174202186697086,2.2463490645524096,0.062158067583216535,-1.5540343814942648,N,
1.1290936044871016,0.003776133802952713,293.0,13.573685211962916,6.0,891.4048059538231,1.7481464546935666,1.5668727026445013,2.285675762953729,0.33692955671340663,0.5950613467843295,N,1.545866350692805
1.1477239549108618,0.0037793077589534474,279.0,13.573685211962916,6.0,1010.4717875076434,2.1144288463642167,1.7583290224280812,2.5804454320199213,0.24741706614278716,0.23275043207285476,N,
1.2729986065240946,0.00422416568520744,286.0,13.573685211962916,6.0,1446.2269473489825,3.3716685284296433,3.5256805291643016,2.6460001137856684,0.0674091391587856,-2.745647767158858,N,
1.172696918904652,0.00394685615823214,295.0,13.573685211962916,6.0,971.4374021238812,1.8135241460053082,1.8478144037588131,2.4965321235578113,0.34915124108904605,0.0642777607818694,N,
1.1257069001122526,0.003668795821249866,303.0,13.573685211962916,6.0,998.1475016679909,2.4390449485722194,2.027138724860997,2.0527781345560507,0.12293967334208294,-0.7049202346271676,N,
1.1375986494622463,0.0037678224056202753,310.0,13.573685211962916,6.0,1050.1714569582482,2.5749148056612086,2.2919979785179323,2.06168225812433,0.06210296307351526,-0.8324353077802268,N,
1.2651678165712568,0.004286768737602995,300.0,13.573685211962916,6.0,1528.1240593347077,4.570715396673155,3.365875174979739,2.214262774139591,0.023168033913551392,-2.51542067085713,N,
1.1424737417853914,0.0038120163616691145,284.0,13.573685211962916,6.0,995.6627341079501,2.2103113515737967,2.032475039044161,2.2992804990390647,0.09099712584062662,-0.6700817375058125,N,
1.0934715223292886,0.003672296214023319,288.0,13.573685211962916,6.0,960.8591663783941,2.3051985296421615,1.7572877119108703,2.1778531219047923,0.14763672935609423,-0.23702704442530106,N,
1.1663065785308948,0.003924138322237627,283.0,13.573685211962916,2.4,1103.4595967855632,2.6604997854506482,2.3288710045012477,2.2275852750214917,0.1178372371793772,-0.7666935742938831,N,
1.2953354981910985,0.004290167705822006,271.0,13.573685211962916,6.0,1202.901330193077,2.018437796485846,4.968658003893076,0.921266405211818,0.1100893602804109,-5.050769109519223,N,
1.1193012140376186,0.0036155386276275478,272.0,13.573685211962916,12.0,996.2555985446647,3.112607351170941,0.8077546279703242,2.457884371076385,0.20990799514270037,0.9365260555450649,N,1.6618998782294296
1.098206417877204,0.0036604019466582715,323.0,13.573685211962916,6.0,1011.9894850902795,2.183823522816618,1.9126437581256002,2.4846257098443925,0.1327119398626458,-0.21433108467363304,A,
1.2300746942723304,0.003939482011960739,302.0,13.573685211962916,6.0,1458.1180049397256,4.380526962061755,3.5287916349904664,1.749983814906414,0.027546897129087818,-2.784365650275025,N,
1.2041257205452671,0.004001324557373486,299.0,13.573685211962916,6.0,1132.9795301915863,2.743032534572911,2.21479115442899,2.4752975096051464,0.10738786088213917,-0.7742061523904868,N,
1.097844456816633,0.00370024091833374,282.0,13.573685211962916,6.0,921.9052578337208,1.8541757102015215,1.6276353768763592,2.4479523509796133,0.19226045448357654,0.12636223515584827,N,
1.143858774237326,0.0038084340199327654,270.0,13.573685211962916,6.0,1004.566563647502,2.294909676841302,1.8824112699298308,2.357254642711475,0.13862279213284226,-0.42914750358631687,N,
1.233127412481645,0.003990515349989163,289.0,13.573685211962916,6.0,1157.5336585859525,2.6491054279299537,2.218636543707651,2.6208363323713297,0.2251186495161618,-0.18519478593698194,N,
1.2224225047154447,0.00394664205174897,292.0,13.573685211962916,6.0,1475.7969715187699,4.360742903118933,3.4891858843455186,1.9931956118631335,0.03017457171316761,-2.9309793569669615,N,
1.0779461886408972,0.0036299790853840095,297.0,13.573685211962916,6.0,904.2314797643922,1.9191880750128003,1.8107902190289469,2.164981821591554,0.12335142512516514,-0.3590838766795322,N,
1.1808579370744186,0.00387733406407327,291.0,13.573685211962916,6.0,1059.4538245443748,2.211638865861448,2.1750723965307617,2.4347327545284103,0.24376842234383947,-0.06993542175729384,N,
1.213152762171745,0.0039347018450366315,297.0,13.573685211962916,6.0,1150.8672300062135,2.4894447081478526,2.1495940455049585,2.832009162562507,0.1878643448571303,-0.16825822734246784,N,
1.1567687433391363,0.003880400966983643,288.0,13.573685211962916,6.0,1020.621231039854,1.9447166065460764,2.002864656047435,2.635197106317498,0.20836741590723468,0.02516043750188838,N,
1.197442845582313,0.003922599149190071,285.0,13.573685211962916,6.0,1375.6182638315897,3.961549928763354,3.175106203338576,2.015321892070391,0.023818076500852475,-2.192719703639765,N,
1.1470030399109417,0.003745508829180236,275.0,13.573685211962916,6.0,1005.7764263208504,2.332714340504025,2.082997804586059,2.1788063590062188,0.0980320536965032,-0.4920847746939756,N,
1.2603741808010773,0.004080332364102453,287.0,13.573685211962916,6.0,1145.50041637033,2.596775103723837,2.191240434745643,2.5787232904466277,0.2845713226909021,-0.15871450811329496,N,
1.1435823750738343,0.0038685038542841384,303.0,13.573685211962916,4.8,1043.2020310770608,2.380328456713478,2.146450130029243,2.3236694245452854,0.13762420222587907,-0.004547727758716896,N,
1.0715132891850085,0.0036411435366221112,302.0,13.573685211962916,6.0,975.8794329061791,2.3153284055772776,1.9716760649410117,2.13747466718984,0.08364570388249548,-0.540165930582311,N,
1.1740863433903295,0.003903992628606657,299.0,13.573685211962916,6.0,1065.3408049377142,2.430418563195907,2.2497412426705905,2.294681829287088,0.12917742895685316,-0.9724466051333718,N,
1.184682617506955,0.0039316495507168,293.0,13.573685211962916,6.0,1064.5007967378071,2.2452018826562097,2.0312523984582604,2.573290298580433,0.22955701066794837,-0.1374353629264831,N,
1.1066618303690414,0.0036919654044820466,285.0,13.573685211962916,6.0,881.0718443797159,1.743626466922072,1.5913088467626617,2.400680321032444,0.14632889220085532,-0.2336523613676423,N,
1.225153941978076,0.0041043929626507335,284.0,13.573685211962916,6.0,1490.2533086591604,3.8568647346057485,3.400874175251266,2.6631680991580637,0.01961778673750819,-1.7406089487901664,N,
1.2695215084179283,0.004158334819627106,287.0,13.573685211962916,6.0,1514.4240588955824,3.8190032863680092,3.6572752245087603,2.565130714441844,0.05194112934529922,-2.4732444086455576,N,
1.2239741355622138,0.004034840907709997,291.0,13.573685211962916,6.0,1230.642778871952,2.9694085094356995,2.7634735643728083,2.4165111258837944,0.08534319046298688,-1.6105901382133128,N,
1.0792275502769888,0.0036832220175768747,300.0,13.573685211962916,6.0,1001.8641630309203,2.284555850288703,2.425991824368217,1.8990213657623538,0.07253094419960235,-1.190691690672866,N,
1.2322465650300591,0.004061306472573059,305.0,13.573685211962916,4.8,1550.9026159985874,4.346171059805061,3.7740671951524813,2.1904407745503938,0.03510931766390179,-2.6029886622679794,N,
1.2154203894758424,0.003894848419295473,301.0,13.573685211962916,6.0,1125.7312847356034,2.670012355743338,2.193016457090926,2.5483916122848216,0.09638213020598448,-0.759600319306067,N,
1.1464201567622905,0.003860991293569594,291.0,13.573685211962916,6.0,1163.5787236674362,2.5346375635360436,2.7607235333923503,2.35961236666805,0.10257369392084614,-0.8027194301648616,N,
1.0817192084006468,0.0035662115438389367,282.0,13.573685211962916,6.0,869.44622797153,1.8768497210928154,1.5571066936505833,2.1746591744327426,0.1717956684719087,0.1187255221679189,N,
1.1493909361082513,0.0038008777256009502,283.0,13.573685211962916,6.0,1025.925063134486,2.124751807555701,2.0594556703028215,2.46909486594504,0.18478797874975553,-0.32844211545370455,N,
1.2170715767009979,0.0039895095255219675,302.0,13.573685211962916,6.0,1188.031718391097,3.0700408492159905,2.2591695819887385,2.47919648721058,0.10886078714995859,-0.8760791624785068,N,
1.1155137147767487,0.003875834636171191,309.0,13.573685211962916,6.0,1014.3336775900669,2.508486311501916,2.116320960708965,2.0874394276389374,0.06995326517461836,-0.7261909739411082,N,
1.0618898482027437,0.0035795633112053644,304.0,13.573685211962916,6.0,1003.6149183926742,2.508957381768578,2.0972516913389754,2.019252912036638,0.060054853133249424,-0.6521327319219996,N,
1.1778940330368421,0.003920229197800085,302.0,13.573685211962916,6.0,1157.2493261295097,2.826257587865248,2.6385290415420855,2.121740294657409,0.12022787052047665,-1.0490131047018725,N,
1.1952697207554588,0.003968492722552972,301.0,13.573685211962916,6.0,1084.8151232477385,2.2327081737734353,2.197976263665668,2.558211663426728,0.24126361523832168,-0.150004377205857,N,
1.072188335816251,0.003746621887451974,293.0,13.573685211962916,6.0,958.9335784108863,2.141727328953824,2.159911152706695,1.9467051807688085,0.13690745477093166,-0.09400038257969676,N,
1.1378326682946476,0.0037357155238211767,277.0,13.573685211962916,6.0,1034.8892077305209,2.063938631453953,2.0752387138109194,2.56263529691183,0.18716346660811556,0.06845163910607668,N,
1.192241122357347,0.003960271985961666,290.0,13.573685211962916,6.0,1110.6858019917481,2.3811542652652675,2.432165246494408,2.460046057786559,0.1369672670347965,-0.8653241221367559,N,
1.0719606428832165,0.0035848672678749356,301.0,13.573685211962916,6.0,943.266980554687,2.1382404667375043,2.003405959941876,2.0942754321275863,0.06850445593208652,-0.38640174993822357,N,
1.1244453672581498,0.003729486669716048,307.0,13.573685211962916,4.8,979.6406826355933,2.045652722121073,2.155986663085131,2.1671298519378954,0.16063142551801063,-0.42710635883280085,N,
1.1917643247669212,0.0038861608835371467,302.0,13.573685211962916,6.0,1227.5048710980234,2.866447169669257,2.7070366148004763,2.527279265874514,0.08128415738855828,-1.1479814327996274,N,
1.386194724053463,0.0044501097767043205,299.0,13.573685211962916,6.0,1907.7452671961591,5.594881055606266,4.410952051884823,2.660077428945558,0.04724406009567929,-3.9268166272922,N,
1.1186671620075732,0.003696866113934672,285.0,13.573685211962916,6.0,982.0844096375235,2.2159961969532054,1.933896193600859,2.348880853053154,0.08330400506834239,-0.5852809910049461,N,
1.1541255141795437,0.003799230154929725,288.0,13.573685211962916,6.0,1105.103270314956,2.5296412523718943,2.277309625282324,2.4272314167672073,0.13598384515214276,-0.6505215707747638,N,
1.2277427396267853,0.003898283495841123,289.0,13.573685211962916,6.0,1217.9274381803946,2.9599906428971017,2.4676647151830626,2.5403401096379508,0.12528789463340506,-1.0662871851566784,N,
1.1312038644964693,0.003798767432811712,290.0,13.573685211962916,6.0,1025.6804441743145,2.5312530858416746,2.1492088716228666,2.100813990742423,0.05226189577662724,-0.7420228104515996,N,
1.1314444150488157,0.003743303701366266,299.0,13.573685211962916,4.8,1061.6588879632423,2.654069335072416,2.3624245889404794,1.9756534753481,0.09747011796151839,-0.8611909731111747,N,
1.213459528810544,0.004046337973377363,304.0,13.573685211962916,12.0,1091.1521392109262,2.5096603995051767,2.291279440620204,2.256037311037165,0.21476273108538918,-0.3763113175401834,N,
1.1871394121099674,0.00392769388388045,301.0,13.573685211962916,6.0,1400.1677972143532,3.970504596917732,3.383551550518024,1.9500813045662262,0.03212932807949063,-2.4250515615009665,N,
1.1224552484477248,0.003764768045732092,286.0,13.573685211962916,6.0,902.420987202017,1.6993948747260188,1.685579133272727,2.36528745452224,0.25083656180375863,-0.15047495563135144,N,
1.1487250200993757,0.0037969281592622863,282.0,13.573685211962916,6.0,996.227445634694,2.2947689364908097,1.942352409850194,2.244263761086889,0.1480591864089369,-0.5011345498678974,N,
1.19073374335376,0.003922904743256161,285.0,13.573685211962916,6.0,1175.2329926645173,2.5785634169906237,2.3968450737268974,2.712122363759587,0.14868286763776356,-0.480938653131671,N,
1.1636690827484213,0.003929422468297873,298.0,13.573685211962916,6.0,1014.4307685959142,1.9725766830147096,2.23779139113288,2.3758020003731284,0.17066356146713724,-0.6214666742191776,N,
1.1397682688670074,0.003731649509088525,304.0,13.573685211962916,6.0,1024.9849076460725,2.239794892051587,2.146943550123179,2.2401622845238487,0.2018987461030521,-0.11520067783011365,N,
1.1861532786123417,0.0038042278441164077,295.0,13.573685211962916,6.0,1102.8679902643553,2.481463793093442,2.424815697868739,2.283228912226786,0.15806546969552837,-0.4477429708058253,N,
1.2149487781399122,0.003933887743928614,305.0,13.573685211962916,6.0,1122.6048924426025,2.461033256900001,2.322906038190857,2.458677784333939,0.24672426809752185,-0.3419564822682533,N,
1.1064139936026514,0.003739250668688819,291.0,13.573685211962916,6.0,1072.1044384085453,2.7221296967577504,2.448859348611114,1.8940834528662651,0.07833185464424808,-0.374827075354358,N,
1.118723718842216,0.003680119846039518,280.0,13.573685211962916,6.0,977.2007201712478,2.03426805631279,1.7939773297827384,2.446236330003023,0.20772372477993772,0.11968402948269596,N,
1.3028083581090204,0.00421053160203124,285.0,13.573685211962916,6.0,1551.5865463339428,4.29857408580608,3.6624071496820725,2.30527739798049,0.044865994419764285,-3.2791841419974297,N,
1.1914012103758396,0.004015245358476216,291.0,13.573685211962916,6.0,1048.9092783463284,2.481116068115049,2.126587714353361,2.2667982245703073,0.10631323353093089,-0.7317650366406694,N,
1.133258194533532,0.0038198900762183344,296.0,13.573685211962916,4.8,1179.626494901502,3.2096816263121264,2.599350002767702,2.0274871611708982,0.03935051613452471,-0.9316812157617684,N,
1.1200007723712615,0.0037581728981621004,311.0,13.573685211962916,6.0,1061.2738940754955,2.690365586460957,2.279801839180084,2.0634064552739586,0.03927040639945447,-0.8708911893185342,N,
1.2239356860194088,0.004042343374815297,302.0,13.573685211962916,6.0,1120.956823589924,2.395032471936837,2.3211788386646743,2.5767472056757024,0.1822278677681382,-0.6929627864238664,N,
1.1860717603320527,0.003964820349138719,288.0,13.573685211962916,6.0,1008.8545868257171,1.9515483678796635,2.0610305307340706,2.4828851955390547,0.23896254681744822,-0.21293552737179897,N,
1.0397535026083597,0.0036613945817234816,290.0,13.573685211962916,6.0,906.5668796013581,1.7781276895747937,2.037208208458258,2.1028282683335924,0.12432633954832542,0.1684952785413536,N,
1.1129937771930813,0.00372491824222281,278.0,13.573685211962916,6.0,1036.6617150567558,2.7343759476742866,2.0490671070740443,1.9898378838337831,0.1114089745926112,-0.7483567994172942,N,
1.3444543748991051,0.004261908516451675,293.0,13.573685211962916,6.0,1930.5973934580982,5.970815630477813,4.748613002114957,2.048412119787897,0.04779747019605855,-4.0596544196835485,N,
1.1035269134292536,0.0036808807066362015,297.0,13.573685211962916,6.0,973.7137482281287,2.3125364290142305,2.0664999682407874,2.1238962065194884,0.03209120619818404,-0.8581069418630635,N,
1.16235190714904,0.0038569897333111,304.0,13.573685211962916,6.0,1385.0504160399669,3.8511247016888936,3.3546305688329485,2.0009807968455626,0.01556080384247029,-1.7920308023797167,N,
1.1445247776326597,0.003757206934147679,302.0,13.573685211962916,4.8,1044.0489670218042,2.61716703400124,2.167222980482519,2.046965880878595,0.13202542767804978,-0.6267658436260306,N,
1.2292707006955237,0.00406056830074488,308.0,13.573685211962916,6.0,1200.8369039285458,2.8874694797807234,2.320441346122984,2.632521555206097,0.16596692892284273,-0.8253307922881506,N,
1.1296389923925803,0.003703039058050576,287.0,13.573685211962916,6.0,915.1423075502943,1.7358047748018157,1.669588042833503,2.4718576207101277,0.2347010168603096,0.06286867007489316,N,
1.0740178944002903,0.0035600900140982383,277.0,13.573685211962916,6.0,879.4226006354235,2.029964248005001,1.6724209699430952,2.0159097952540814,0.14433240343374032,0.06084112174768802,N,
1.117485996286871,0.0037321432802344375,280.0,13.573685211962916,6.0,966.906659611125,2.337156920958329,1.9340243247361735,2.0348916876891825,0.138896228762188,-0.5922119822765896,N,
1.207066296340617,0.004113356917460779,296.0,13.573685211962916,6.0,1499.2810640865932,4.494029925135153,3.5414170722162113,1.9396628513844116,0.021567329467401326,-2.0334433908032943,N,
1.0903441089032597,0.0036181885310649685,304.0,13.573685211962916,6.0,875.3886309054624,1.9080392627119942,1.7820279869913862,1.9907444105206327,0.17781112305116425,0.2727994990837623,N,
1.0520345790014651,0.0034266091641665607,298.0,13.573685211962916,6.0,914.9702160694962,2.116552982709729,1.7981932115553563,2.0820244552057856,0.10616310853803128,-0.2135964364805738,N,
1.145298360089315,0.0038495262390318497,296.0,13.573685211962916,6.0,989.3164103838228,2.227717294806528,2.230102036259761,2.0589746599396053,0.07974423426645443,-0.6735204319849063,N,
1.1944513190793526,0.0040431142879468855,292.0,13.573685211962916,6.0,1165.542512145978,3.0210511485132376,2.555759994780949,2.1744279453121145,0.027227171953497192,-1.0722088458819363,N,
1.0763564299247286,0.0035334876484282005,292.0,13.573685211962916,6.0,865.5859957264263,1.661030726611091,1.5390548436031897,2.381513130177839,0.18402891225713874,0.05521631078353576,N,
1.0880984046849305,0.003570188682655381,280.0,13.573685211962916,6.0,935.3873520840888,2.034617140987985,1.8683368150606472,2.1786809553145132,0.15029135687288298,-0.03431620564161141,N,
1.1754878259924162,0.0038061305750869503,281.0,13.573685211962916,6.0,1048.4891819995682,2.487444454933228,1.890604410068644,2.401566556833965,0.19560371512886598,-0.45330923022156283,N,
1.2138576773106367,0.003989079102298563,295.0,13.573685211962916,6.0,1500.6403683770905,4.274516727816252,3.5895369011446863,2.1574113804596027,0.009966834434038608,-2.030674396326531,N,
1.1646743024102457,0.003875409793398976,298.0,13.573685211962916,6.0,1802.8343218037576,27.76617829975573,3.879410907168889,2.3623055322289637,0.23223346985852686,1.334187484808465,N,1.6666666666666665
1.1646743024102457,0.0038099149855418575,258.0,13.573685211962916,4.8,1072.4099716850228,4.229214389147403,2.666407501299541,0.18630331225762187,0.2022493521900594,-0.3383228717356364,N,
1.202751735228899,0.00390433298767168,258.0,13.573685211962916,6.0,1019.8195802783775,2.3326669287659976,1.8411170617079355,2.3291035441980674,0.3040776273757979,0.04208535542223631,N,
1.2111504143221379,0.004049166772251156,299.0,13.573685211962916,6.0,1095.1886019737897,4.1852617154206095,2.047659328112643,1.0080348628116758,0.046069188056425084,0.015807817806350526,A,
1.0618845758540243,0.0036170984349780362,299.0,13.573685211962916,6.0,922.0205360056749,1.8375989734862201,1.8952986340027442,2.319160777208335,0.09921384185920944,0.02190075296366986,N,
1.121517944871053,0.0037412017691707635,285.0,13.573685211962916,6.0,961.7562807384088,2.068717504809749,1.910173478978052,2.2396367184854666,0.1751810353915239,-0.4284299405975252,N,
1.2009235016073996,0.004068116382043496,290.0,13.573685211962916,6.0,1175.4806716842354,2.499275175882123,2.538149045169865,2.587307585773782,0.20947985515171083,-0.4465996053081228,N,
1.2517570539701688,0.004185911821013424,290.0,13.573685211962916,6.0,1565.9381543016657,4.263003738095796,4.0818847603423,2.103583852957704,0.027075760589274064,-2.4776442423825835,N,
1.1050864070038267,0.003577801917994907,292.0,13.573685211962916,6.0,977.0413388484814,2.4544214506616298,2.09433568152551,1.859752888935461,0.0940542309019057,-0.8434286902868279,N,
1.1989643862963921,0.003802473141329365,288.0,13.573685211962916,6.0,1119.287019836666,2.8508367147093163,2.3972107159924905,2.118801613419505,0.09021494104997774,-1.2089297181964984,N,
1.2103756186434278,0.003941098816619538,293.0,13.573685211962916,6.0,1207.2810537848213,3.11514443787505,2.466581464276344,2.37880347374162,0.10076895401370178,-0.8877934912243791,N,
1.1229907367664147,0.003654427302616148,282.0,13.573685211962916,6.0,950.5955469918249,2.162845699796399,1.864140345935792,2.209233102342827,0.09697390438949223,-0.4766376787903623,N,
1.1383321957261963,0.003961587089295789,277.0,13.573685211962916,6.0,996.8999680717806,2.1339586978238234,2.044012714114221,2.1910174954363018,0.2691872563912099,0.30413266544516554,N,
1.2504322290985657,0.004049867340956526,280.0,13.573685211962916,6.0,1155.6189775239025,3.0606162742640395,2.224281965136568,2.3213957679088333,0.0925667383371607,-0.9105399925561528,N,
1.1112332774752165,0.0036748444171210847,298.0,13.573685211962916,6.0,1036.6423772376288,2.271334102316882,2.204565919371729,2.3723468133405743,0.09896318189631725,-0.027194393385141874,N,
1.1121277476890625,0.0036360709239357525,298.0,13.573685211962916,6.0,1027.358793961705,2.5287339339077453,2.1559173818366246,2.043702288255635,0.11317840643746069,-0.6496283430101787,N,
1.1782849743641335,0.003950606682972266,295.0,13.573685211962916,6.0,1137.8131062094637,2.435935292854294,2.690308490490324,2.3245947073492563,0.13765596520885873,-0.4043767121287276,N,
1.225250820638284,0.003947683256759131,297.0,13.573685211962916,6.0,1158.5853678407204,2.7557686716445216,2.2513174541740297,2.520175861273623,0.17694264026764045,-0.907633865751345,N,
1.227662232853958,0.004088765720207554,284.0,13.573685211962916,6.0,1330.2733811080607,3.6492159673011697,3.021905584447728,2.1559850594087444,0.036034368139135034,-1.6910805264540254,N,
1.1188036313064198,0.0038046130114324753,285.0,13.573685211962916,6.0,1028.7314199398272,2.2636400890676907,2.2826396996900487,2.1617980637738605,0.13637544113881167,-0.7740742530038297,N,
1.2022893306444378,0.003967666163293617,288.0,13.573685211962916,6.0,1124.4448242627343,2.469215247692171,2.318397585950172,2.541926479134548,0.15349615046329562,-0.6732831033405772,N,
1.1619112699412892,0.0039582100536680225,289.0,13.573685211962916,6.0,1145.9450688174927,2.339885400841821,2.5512092364638996,2.5975341051874126,0.13998083485190754,-0.5254937640625584,N,
1.0855366577782917,0.0036439220310582813,300.0,13.573685211962916,4.8,1013.8524177162512,2.2555361253512105,2.1422498566482258,2.2688089940350564,0.07936628453673383,-0.18670751700578903,N,
1.154530473778914,0.003921669164265704,308.0,13.573685211962916,6.0,1248.6339845822229,3.2882513104186057,2.9016422165418696,2.064683746597675,0.04926057319840074,-1.5650177552493443,N,
1.263499470775016,0.004207166883358017,299.0,13.573685211962916,6.0,1370.6302295191178,3.6671517490471435,3.046310814322012,2.3225517967510445,0.09873427459098594,-1.165891724430399,N,
0.9811590961338605,0.0033095880330313754,286.0,13.573685211962916,6.0,889.6041249753985,2.4956125350095024,1.833196038234245,1.6184117772010007,0.02692253258199105,0.14059846255550446,N,
0.8939819949768784,0.002911928361654067,282.0,13.573685211962916,6.0,623.1324092484632,1.514987190264502,1.2895838475634693,1.2361110218779139,0.11421019652068902,0.5730447062751088,N,1.5355630243991683
0.9368491581434231,0.0031162619042833573,277.0,13.573685211962916,6.0,830.4320603994348,2.328009592584914,1.6348130314124771,1.4995338601618737,0.05463695611285844,0.14587070569847785,N,
1.4489315257445097,0.004661005848641333,295.0,13.573685211962916,4.8,2646.156310793233,9.097056175129236,6.926449245949144,1.5560074766630652,0.08216541738117894,-8.095068083153732,N,
1.2577760710161503,0.004170035170098368,297.0,13.573685211962916,6.0,1767.8759116923516,5.622397604553098,4.511691073800659,1.7326395768312328,0.027226637569199443,-3.3989886994807046,N,
1.0877420562407467,0.0035356257798531583,294.0,13.573685211962916,6.0,973.9295100956874,2.206758480108741,2.0751043069112023,2.061668168628363,0.12312307074588111,-0.3688149002139072,N,
1.2741008864191712,0.004123710479299602,297.0,13.573685211962916,6.0,1319.1732063877805,3.1098738297733712,3.046253286466218,2.4943456398047124,0.14249553167270335,-1.9635279774066465,N,
1.2128592435357153,0.0040241861172016944,301.0,13.573685211962916,6.0,1158.2109291865027,2.768712112256952,2.247279610016409,2.6044019153439275,0.10109914763842104,-1.0665866777294652,N,
1.1939810628864092,0.0039712614403649435,282.0,13.573685211962916,6.0,1023.6357355760798,2.261883093167327,2.13230432606385,2.2528074828390516,0.15574659823815845,-0.6598950743473441,N,
1.1847827229367565,0.003930361346029683,274.0,13.573685211962916,6.0,1211.2356118505404,2.7963610371645924,2.583571918529635,2.5950449986382758,0.09372533910402844,-1.2192652305327065,N,
1.3098883602448355,0.004240875726293559,286.0,13.573685211962916,6.0,1286.8659807928932,3.18497522407114,2.7258850371477363,2.547588138303212,0.1066812802305321,-1.6053606608713573,N,
1.2805920512192275,0.004177583598937829,287.0,13.573685211962916,6.0,1459.6961468915954,3.7053602430713988,3.7600120772505004,2.241596998479399,0.04102521689482748,-3.1702274891847515,N,
1.1510815547315367,0.0037686858062542456,304.0,13.573685211962916,4.8,1168.670473594845,3.0114676954900865,2.5494905770926173,2.1726586012622997,0.045228383980765445,-1.0653192630309614,N,
1.2139302030586745,0.003995775472992539,298.0,13.573685211962916,6.0,1191.4752186017972,3.0599497640333815,2.4553276549742633,2.318070069787911,0.09553872557903259,-1.3497539898169635,N,
1.2688051783427732,0.0041419752805374604,299.0,13.573685211962916,6.0,1245.712416867155,2.9021016167576223,2.357942769189029,2.8200055344970076,0.20303509926335175,-0.7924296756703874,N,
1.1264942487347316,0.0038117851124726846,290.0,13.573685211962916,6.0,974.4454651728701,1.898805124228861,1.961657675222746,2.413859303188793,0.20534462665767952,-0.07548470868937106,N,
1.1347715014667519,0.003705062008683659,280.0,13.573685211962916,6.0,1017.087355604397,2.4449538186264554,2.028699378500177,2.1671020124046056,0.13037193799483693,-0.32750417629938067,N,
1.217756054111688,0.0039401338643555535,281.0,13.573685211962916,6.0,1205.3237628067884,2.7551468314602796,2.3991021277322235,2.7502298102388703,0.13361297059282182,-0.9281503466926578,N,
1.2266152862785167,0.004080073433188337,286.0,13.573685211962916,6.0,1254.2936799138713,3.1604022412988035,2.5900044403114317,2.5150484443591266,0.09713904856103887,-1.398584638809581,N,
1.1039613726702957,0.003697094835117544,298.0,13.573685211962916,6.0,1063.8757674825424,2.315212058940927,2.3333706362435236,2.3601112818852545,0.08606167220916124,-0.19119899590652364,N,
1.1669750928439677,0.003750777660328215,297.0,13.573685211962916,4.8,1127.1745603004795,2.777080157401263,2.2969091418091034,2.2852481929965514,0.14778184006804457,-0.4866662272553524,N,
1.2126325610761661,0.00405460860522389,305.0,13.573685211962916,6.0,1244.4207433890126,3.1783177497449024,2.5615615777861676,2.4772982114668247,0.08211706642297385,-1.525948840388487,N,
1.1730923832526736,0.004003958657368295,290.0,13.573685211962916,6.0,1076.0005682476597,2.7512243932919835,2.1488644988656103,2.247558531182011,0.04998666119543375,-0.5311337805905713,N,
1.115320336724949,0.0036926959765820654,281.0,13.573685211962916,6.0,977.60495369361,1.9288117254433064,1.8140328339724083,2.5508717761909376,0.20975955093253662,0.21731254051656343,N,
1.1993333220703375,0.003945073061021572,281.0,13.573685211962916,6.0,1248.1979986166084,3.4814350542659147,2.7243121993786024,1.9894100512344284,0.12688005293864854,-0.8167789248951475,N,
1.2974223937246663,0.00410590437247942,288.0,13.573685211962916,6.0,1363.8129645375031,3.5185185461492137,2.5485787026478235,2.739515082479509,0.2857737192907587,-0.2861067303322051,N,
1.4785659791706331,0.004828661394876282,292.0,13.573685211962916,6.0,2020.8180591618823,5.344453138296862,5.16220500684184,2.882270234219818,0.08501440884513213,-5.50334526295387,N,
1.1414788587800306,0.0037561702214183607,286.0,13.573685211962916,6.0,1062.7419610473414,2.2271524614974685,2.2672935153579927,2.5103860142059,0.10232788467767288,-0.47963460459882484,N,
1.0792893900541192,0.003588180533666622,288.0,13.573685211962916,6.0,1041.065516205706,2.1517560794597856,2.4561770466278006,2.277569441387158,0.0683468810108666,-0.34867414396337343,N,
1.1237484570767797,0.0036742474135662696,284.0,13.573685211962916,6.0,1225.1846005652583,3.513191424103725,2.9311928188064464,1.7591935107761332,0.005540107975518395,-1.1294679936494842,N,
1.0498484237705283,0.003621499256136573,280.0,13.573685211962916,6.0,916.8939808228502,1.8328982730593377,1.9727393587734134,2.269125094487439,0.11028712379811756,-0.07237807158192666,N,
1.1231485074643797,0.0036862993605370573,267.0,13.573685211962916,6.0,953.5888039669743,2.026596992458654,1.6789809468481673,2.4480609928943644,0.22544716191095918,0.18293333155267794,N,
1.1352588234459584,0.0037737311808470884,267.0,13.573685211962916,6.0,928.212636187506,2.0951764928926986,1.9034059512030845,2.097921334890309,0.13224669518071985,-0.4858452320535242,N,
1.1178040812425336,0.0037136785764785153,269.0,13.573685211962916,6.0,993.5276501891159,2.2955657252208805,2.0912434756546805,2.1687784950049926,0.0696668216944545,-0.7774114265556079,N,
1.176405820368345,0.0039189962492670455,286.0,13.573685211962916,6.0,1134.061476162958,2.566562586777251,2.5285530454489202,2.3855905430333535,0.08149378042387972,-1.1161869937845068,N,
1.1235611318773173,0.0037853925950058565,285.0,13.573685211962916,6.0,1009.0974159052524,2.085318432402087,2.190726640926249,2.3106980158854484,0.13722537814105862,-0.5051389088830797,N,
1.084758851021091,0.00372593773637303,285.0,13.573685211962916,6.0,1237.3459371562305,3.212376971047477,3.2748281152428422,1.7162855723784336,0.0280244703772728,-1.3408715593048646,N,
1.173676300891231,0.003888511661930381,274.0,13.573685211962916,6.0,1061.7052860868057,2.2674807729531024,2.199533834638556,2.4037991591463603,0.17248835338556617,-0.8992282835592604,N,
1.1460939100791374,0.0038723538513761252,281.0,13.573685211962916,6.0,944.1080857546957,1.8276040380493972,1.8330482844504847,2.3488189353995264,0.28355268223582575,-0.0022244846878908507,N,
1.0786790723321498,0.0036964643458538313,272.0,13.573685211962916,6.0,835.950167677316,1.5168454972386314,1.5279829402492402,2.242867912962398,0.29774950919823484,0.2591171385903989,N,
1.0314313141637175,0.003500636428047198,278.0,13.573685211962916,6.0,815.9669075276762,1.5005530251673378,1.4245515234758188,2.3196224952745856,0.1960002721616908,0.5858739596561813,N,1.5415924648448216
1.1162474538452951,0.0038198950165581028,279.0,13.573685211962916,6.0,1054.594400170783,2.253303754417462,2.2519915987508967,2.410740776335174,0.1170394393296127,-0.5408262100190551,N,
1.086355922883366,0.003809178339525375,284.0,13.573685211962916,14.4,1040.9739935425594,1.8004726629662782,2.5838219342605555,2.452097530343108,0.09661432941610362,-0.8944836445739062,N,
1.0171787079295287,0.003578463200012682,304.0,13.573685211962916,4.8,962.3945671597857,2.1048609443280277,2.2632706059579757,1.9913215375247963,0.04478591165403591,-0.7729232355557186,N,
1.039726405117135,0.0036958081729947783,304.0,13.573685211962916,6.0,970.0003564975361,2.29702894925292,2.1563597017662963,1.9403325333366126,0.06068571367062406,-0.6383831513173442,N,
1.1082636962852155,0.0037071042751493366,294.0,13.573685211962916,6.0,887.6386393432888,1.788713536473305,1.7126712533086523,2.2218077566369625,0.16556124154056392,-0.36300150398958125,N,
1.0100396567041032,0.00369224612745422,282.0,13.573685211962916,6.0,878.0411812199983,1.8376024952879573,1.9294908318939863,1.9830193927697297,0.08564439741506456,-0.24430215828921517,N,
1.0429725947478767,0.0035574127575869288,286.0,13.573685211962916,6.0,815.2795638923695,1.4222434871237062,1.458372766272767,2.3127379503083607,0.22650133300622907,0.4265393653736127,N,
1.0937014750071712,0.0037029160649261245,298.0,13.573685211962916,6.0,993.4227901546875,2.3957438317594137,2.1548937474992544,1.9742488167146657,0.09040185771244916,-0.7626757606742467,N,
1.1044103455666294,0.003690991709085348,301.0,13.573685211962916,6.0,1022.5223121978022,2.0455796324183595,2.3045323100632373,2.372467886209153,0.0900813680748807,-0.6899380411172618,N,
0.9912574615684958,0.0035093248450651718,315.0,13.573685211962916,6.0,973.4432592734221,2.0842814280444952,2.539535774589396,1.8044481033042863,0.052069318686462335,-0.35161063298879597,N,
1.0720163020419122,0.0037018520707294117,309.0,13.573685211962916,6.0,963.0624667287819,2.440641774715109,2.2655261016950057,1.6311723549078534,0.08286558405097884,-0.6333033820131251,N,
1.1345096748252959,0.003724672177609968,304.0,13.573685211962916,6.0,1117.2234397849938,2.721966754930822,2.691316665361403,2.014120483173941,0.024829072480047554,-1.5776048376192595,N,
1.059647377282005,0.0036843426649990135,285.0,13.573685211962916,6.0,910.6275302205303,1.975853581773428,1.9098789055669023,2.0377858747884705,0.12931520924969603,-0.12892138878302725,N,
1.121694364597016,0.0037729997055945454,281.0,13.573685211962916,6.0,1004.4679352887395,2.1645511442639984,2.1878432299903623,2.1846580773110804,0.14904713615530643,-0.112449659650746,N,
1.0989727549360448,0.0037665336735556486,291.0,13.573685211962916,6.0,1086.2472151267734,2.4217896359817046,2.772717025166189,1.9130208423202797,0.11608271438140752,-0.6478377815282348,N,
1.071379457520046,0.003689702117306285,289.0,13.573685211962916,6.0,960.6960374156987,2.0121201986820623,2.1352964968133916,2.1638280760889472,0.09433840819930192,-0.7601620724303882,N,
1.0471119376263283,0.003578018729019406,300.0,13.573685211962916,6.0,883.864792679806,1.91179708505229,1.8422767625347125,2.0550824514597497,0.09362642466617024,-0.08535044872083382,N,
1.0861117767171362,0.003683097563764786,309.0,13.573685211962916,1.2,1006.4734626802357,2.4425347649022906,2.158102669442494,2.0244247788713556,0.07307527703676404,-0.6862586762788435,N,
1.0473999236997749,0.0035810605046693476,304.0,13.573685211962916,6.0,899.1060055705296,1.9753910894308684,1.9043442780413693,2.062241660361117,0.06649127786861127,-0.4117653529268784,N,
1.0045410862898165,0.003443134271931873,273.0,13.573685211962916,6.0,812.0388696681824,1.4743104249281396,1.5870445746700061,2.1999354676291696,0.14252346204097008,0.2357997222582391,N,
1.1359987574118637,0.0038391577263134475,285.0,13.573685211962916,6.0,1165.9035821524628,2.7750549498483625,3.030600806813896,1.9062913335281415,0.05233089239973433,-1.4365836939456724,N,
1.0577737386598713,0.0035549790189971934,286.0,13.573685211962916,6.0,910.0125536053416,2.007032624923151,1.7662153607417546,2.214603318254491,0.13161470059669997,0.14678675068674119,N,
1.0396259380020336,0.003495453712680563,268.0,13.573685211962916,6.0,850.3225753044345,1.9131908049771937,1.5753663074693267,2.059815339958223,0.11803858384918225,-0.03789502100518184,N,
1.0610271800983277,0.0035755998930683116,285.0,13.573685211962916,4.8,959.7436032583927,2.0253032764914094,1.9643502792114444,2.3218168070681457,0.08263138734385783,-0.010851998449213047,N,
1.0593770018033102,0.0036066168170973793,295.0,13.573685211962916,6.0,1011.3543619897755,2.3514701087848464,2.1752957763642504,2.0965238212198924,0.10302388046472949,0.12331550704442618,N,
1.0642301872438018,0.0036874623255365693,293.0,13.573685211962916,6.0,913.5126346641953,1.8668917511486691,1.8301567941989394,2.3386867508134737,0.05043343361442153,-0.2860262913140299,N,
1.0932294377377598,0.0036346014620767366,277.0,13.573685211962916,6.0,849.4650167227007,1.8011165115781878,1.7259908072099306,2.0229550473908016,0.09902402129439694,-0.276268554637481,N,
1.0477786023847733,0.0034934101390067824,278.0,13.573685211962916,6.0,889.3567740356866,2.0085729617998336,1.7607115714494452,2.068226941570256,0.10868435570223162,-0.004427351483600008,N,
1.016094790181661,0.0034974153208557506,273.0,13.573685211962916,6.0,834.9909339393791,1.6758225892979168,1.6153499108364062,2.2362629783731713,0.11121113050726625,0.20800679955432158,N,
1.0839194800009273,0.0036260773420450187,270.0,13.573685211962916,6.0,897.6930531234736,1.972536673983772,1.640029968260048,2.2348928367348697,0.14441135048871295,-0.05103767093151876,N,
1.050842168967396,0.003538219555145443,279.0,13.573685211962916,6.0,886.444959376525,1.6664953968767116,1.7672242704247207,2.2978535023370705,0.16666392730740692,0.419793027731778,N,
1.1106689963412109,0.003694972828356263,288.0,13.573685211962916,6.0,997.0290858111276,2.2844916827644277,2.0068856857976165,2.212484396837011,0.12349746360706337,-0.5566707273075682,N,
1.0851381402311313,0.003664633756636193,290.0,13.573685211962916,6.0,983.8629257650307,2.2778544152343563,1.9061071780081864,2.2885900255598512,0.08699890110045415,-0.55493616662126,N,
1.2907341697020942,0.004272821250955762,290.0,13.573685211962916,6.0,3116.920817620272,7.147243416737787,18.298971877109615,5.251755590269788,0.07363094158712749,-24.845519275108362,N,
1.2907341697020942,0.004078380017492167,249.0,13.573685211962916,6.0,1499.70646849424,6.912567575365167,0.8682053299981912,2.069502648391422,0.1722125522328846,1.007019423138215,N,1.6666666666666665
1.326730271848572,0.00427397134126603,249.0,13.573685211962916,6.0,1442.2662646780063,3.500279915109461,2.8082328725504304,3.0787837285955044,0.20349893059539403,-1.0019385304029047,N,
1.3059037957988617,0.004265845998543146,286.0,13.573685211962916,6.0,1401.7660725655128,5.939450105504746,2.1896308696105113,1.1152223055850339,0.05095540684300858,0.018003363169720243,A,
1.3016048865031267,0.00416967378037201,287.0,13.573685211962916,6.0,1183.936514337236,2.8079894796992004,3.9655632865917956,1.090193840932354,0.055231254172280295,-5.096561350476063,N,
1.1585531441244652,0.003790940163809237,267.0,13.573685211962916,6.0,1426.7534442605636,4.016384898667283,3.5555009022486925,1.8726395299874772,0.03499703510989085,-1.706335089580922,N,
1.150408674250451,0.0038052646707742183,288.0,13.573685211962916,6.0,1237.476696865706,3.4052738017303428,2.65097671582374,2.171398281695098,0.04772351819458211,-1.2035777267899248,N,
1.1798991445979186,0.003879721438103324,279.0,13.573685211962916,6.0,1163.3894849469884,3.2729258740349243,2.307834568178061,2.2490430394842793,0.1290459612596005,-0.9484751160565069,N,
1.1509634997995408,0.003872154242722942,259.0,13.573685211962916,6.0,1103.7142078757834,2.90533535362763,2.261325379799343,2.1199401789036587,0.17855131926793533,-0.16610715880681287,N,
1.20043292925814,0.0038828641326030373,261.0,13.573685211962916,6.0,1232.567095150134,3.3127623180817403,2.6185997078543926,2.3780945195622323,0.1256473929587788,-1.1435915309852507,N,
1.197722413847878,0.003926411900552113,250.0,13.573685211962916,6.0,1174.084361644668,2.899610542690387,2.095051425812673,2.7336605048325717,0.22876780094664662,0.03018103179773386,N,
1.1738243620313136,0.0039795901531636995,250.0,13.573685211962916,1.2,1234.722186261783,3.8222520461992393,2.4295674628531088,2.099656615576043,0.07963920284734416,-1.06489562237223,N,
1.219279870000476,0.003890469219252393,255.0,13.573685211962916,6.0,1221.3948766669535,3.442391762136591,2.3901565054162988,2.370792650765478,0.07421811096010227,-1.0106413700344155,N,
1.2066116319292162,0.004036847737078591,253.0,13.573685211962916,6.0,1243.1521270023732,2.890742082538527,3.034411646525931,2.421864017380171,0.08628702351649888,-2.2083126159060367,N,
1.1018614644611724,0.0036706103930036833,258.0,13.573685211962916,6.0,1062.8557245115028,2.718897999755831,2.007872746902247,2.345599972057659,0.06085687353019109,-0.473671282188338,N,
1.4332772885606875,0.004594385301756118,267.0,13.573685211962916,6.0,2869.257935040292,12.077569123133125,6.494807067238953,0.4889547368746303,0.0934743996436962,-7.2737694551404415,N,
1.2234673327961167,0.003926988847763828,271.0,13.573685211962916,6.0,1247.6583847190986,3.598884741194535,2.4503137781023288,2.3067664024610024,0.1378691882563306,-0.5984927914727478,N,
1.186992968530338,0.0037989407019114554,258.0,13.573685211962916,6.0,1095.680456487931,2.8432733315691525,2.253587004647636,2.2366122934584376,0.0538855230454165,-0.8441910183048525,N,
1.1364756726427323,0.003699528708731956,249.0,13.573685211962916,1.2,1010.736671526088,2.5973164169950027,1.6746016226985108,2.427717136114664,0.26869340737372777,0.009644036893048722,N,
1.2017205277917316,0.00387537687848361,254.0,13.573685211962916,6.0,1153.3127138371838,2.9845762220001433,1.9568919763214505,2.6918471897610883,0.2466044769608512,-0.011976160044302258,N,
1.164775091157922,0.003829563534986594,249.0,13.573685211962916,6.0,1050.0531180878963,2.4703965809049087,1.7756087245089103,2.698000267664319,0.25728680676108906,0.3663236184476633,N,
1.1112245972844321,0.0036483945361295814,257.0,13.573685211962916,6.0,938.9659641570178,2.3178160449661305,1.9653622889219775,1.9021708085005167,0.11619694624335286,-0.4717512785587244,N,
1.159949286131948,0.0037799538754137163,273.0,13.573685211962916,1.2,1237.441825777563,3.427140650127267,2.754057383578327,2.09924366181693,0.07023367496945143,-1.5613613326569857,N,
1.2000826735555707,0.0038545199281520694,271.0,13.573685211962916,6.0,1192.6514203981512,2.932185692389037,2.4251240780902004,2.5308475226586276,0.16288368429105032,-0.9032709873277894,N,
1.123809005746532,0.0036696932286444796,264.0,13.573685211962916,6.0,1006.6043549304119,2.334927517564017,1.9861478943245219,2.300772792698347,0.18779896813182087,-0.1471197689884102,N,
1.0264742874376716,0.0034785818187901022,266.0,13.573685211962916,1.2,963.753892487817,2.4835404194708572,2.0027478925142748,1.881792465217761,0.0618227327608094,-0.5177075153684442,N,
1.078286714335808,0.003469410249202691,274.0,13.573685211962916,6.0,983.5329397889703,2.8088540387133865,1.723801857564534,2.0693496861376692,0.147938208893221,0.018889108766620435,N,
1.2124817216012655,0.003976024820047192,252.0,13.573685211962916,6.0,1056.4507785008352,2.5977982939462585,2.1451232475874575,2.278321629168863,0.1477136585446395,-0.5991020292764331,N,
1.0763037624441172,0.0035406856844633788,254.0,13.573685211962916,6.0,888.8186043181761,2.0328876290952915,1.5448121687030438,2.2476859862465597,0.20428392966462816,0.22848448141791464,N,
1.1072758406471273,0.0037707674946329322,261.0,13.573685211962916,1.2,1113.2855001249238,2.612458325493033,2.6613645804362744,2.0897463818399222,0.0524781300174043,-1.533600028920828,N,
1.1268922314237468,0.0036926795448223885,276.0,13.573685211962916,6.0,1080.1314874853604,2.686971161536532,2.3827453453775616,2.09026914413017,0.039433876494052965,-1.3459168244371458,N,
1.1118502595646849,0.003659453910274176,281.0,13.573685211962916,6.0,1046.9594902488989,2.3474827626079375,2.1683996791882527,2.306331499285778,0.14210244502200942,-0.5658250844017485,N,
1.0305137605589896,0.003502468821218752,289.0,13.573685211962916,6.0,958.6948491912098,2.2870732918156316,2.0862145131628487,1.9743374078937475,0.049638974971960674,-0.7228417179079024,N,
1.2337079598530853,0.004083229563147871,280.0,13.573685211962916,6.0,1389.1618527102319,3.7477500079501302,3.2769197357061715,2.1499052184488265,0.10789844912144131,-2.158996976604776,N,
1.1160682519500182,0.003694221713184531,269.0,13.573685211962916,6.0,944.304224097625,2.031376735766456,1.6324097610976471,2.398401978492632,0.22456257822529835,-0.16253350928710056,N,
1.0457990360199065,0.0036233056804631774,271.0,13.573685211962916,6.0,924.0149531724448,2.0379126890240506,2.247357144608488,1.7629010198289607,0.1171370498139554,-1.0292528471423863,N,
1.0484482024285486,0.003507790325142234,278.0,13.573685211962916,1.2,875.7833913713255,2.1660534681280788,1.5022538918263606,2.088007465007897,0.07617117499708179,0.14759347596352587,N,
1.0940787291233143,0.003768393110880599,281.0,13.573685211962916,6.0,969.3077224702059,2.165181219047169,2.05776900246516,2.042192792125312,0.1893773972872419,0.13152947838174633,N,
1.0403779211587816,0.003520801424987797,279.0,13.573685211962916,6.0,951.1154578142506,2.189395170640168,1.749617890573204,2.2806072900555314,0.12111753044462131,0.17047626294221438,N,
1.013914489961321,0.0034611753826463395,296.0,13.573685211962916,6.0,861.2688645988737,1.776373356039757,1.735784483949079,2.0993478612440843,0.12731439198829692,0.2744833643204577,N,
1.1912163718288133,0.003906359626633866,295.0,13.573685211962916,6.0,1481.3424485587655,4.302676291271828,3.684162950080698,1.8537327679483333,0.035864696609058805,-2.266527784008251,N,
1.0138598635579383,0.0034823267194565386,289.0,13.573685211962916,6.0,889.6576220173868,2.2493829102190213,1.6037582827745325,2.017224102001327,0.07288509058783217,0.027186629562723365,N,
0.9943933548262501,0.0033252328357164084,275.0,13.573685211962916,6.0,784.2754839383781,1.7876062609566457,1.4562899780625966,1.8599660953040114,0.11417617615379866,0.2139805995016635,N,
1.0165261436196915,0.0034451047199273747,277.0,13.573685211962916,6.0,892.0046710899732,1.9429154527182744,1.6420218446721293,2.229537166529223,0.1421759282297998,0.3668127165342415,N,
1.0519675692062405,0.0035024970362849883,279.0,13.573685211962916,6.0,937.4723363577176,2.229489646886477,1.79368030168086,2.0993389913011717,0.10373482012334516,-0.27402040528897414,N,
1.0079256112056059,0.0034551706550458756,290.0,13.573685211962916,6.0,799.5215233003664,1.8448021053989607,1.4388250061275245,1.8939021625538714,0.12230593715239815,0.19298339234463185,N,
1.2024815529730701,0.003963885359786513,293.0,13.573685211962916,6.0,1651.9872821092229,5.286378765336813,4.338093478622095,1.2949785239292326,0.07088385377001039,-3.6085290341875167,N,
1.038750574621251,0.0035388795646977525,297.0,13.573685211962916,6.0,973.5631970145478,2.303907287752224,1.969566269890843,2.125634554347445,0.10145014883713674,-0.16826828697401736,N,
1.0575980642944889,0.003507229110114813,282.0,13.573685211962916,6.0,911.4080924403531,2.195675607507772,1.7368034073541407,2.048493396939571,0.10011452373419219,-0.1734696956448618,N,
0.9730002009192824,0.00334862244381185,271.0,13.573685211962916,6.0,841.0506925737515,1.8634619334579772,1.610822188432755,2.050336028350171,0.09636072472259159,0.1500799399205581,N,
1.0502247645980434,0.003654060778366048,271.0,13.573685211962916,6.0,964.6279716457008,2.457328639190317,2.0671870333824844,2.0623478567772393,0.119770191682531,-0.37306536283435215,N,
1.2212021607962305,0.003926112607673957,261.0,13.573685211962916,1.2,1624.3495521176878,4.933178115392863,3.7066780905153305,2.136023894022933,0.001470806792875316,-2.3654847819371607,N,
0.9798203412500651,0.003654582950672504,259.0,13.573685211962916,6.0,965.9124866873137,2.640075843915799,1.7187720670046558,2.315245202923517,0.16794644236405254,0.1678408256804239,N,
0.9709870809892629,0.003220011380269372,264.0,13.573685211962916,0.0,897.2891828042087,2.1830794913208824,1.6599904634316442,1.781522662170859,0.05358284793173117,0.07536918315275248,N,
1.044801987861651,0.0036770594836472758,272.0,13.573685211962916,1.2,1184.866072423824,2.985480827161549,2.6020152892857866,2.182149970276453,0.05601560714783319,-1.2022676631498024,N,
1.0162206899026693,0.00340271024793723,267.0,13.573685211962916,6.0,826.6092662925835,2.0934895718059643,1.4962718639105088,1.9139601527903705,0.10979384732593414,0.1681674128436953,N,
1.0223149786968706,0.00350266574442818,264.0,13.573685211962916,6.0,966.3284386699206,2.8139680027892275,2.111496236021606,1.6893393905160698,0.05982870435853742,-0.46737746421449095,N,
1.0286321720944556,0.003527675047018295,254.0,13.573685211962916,1.2,842.6256963627659,2.1182112195633667,1.5107466212502136,2.0840613248428728,0.07678213735160519,0.016922979542907588,N,
1.1022584913966453,0.003617873627590394,250.0,13.573685211962916,6.0,998.1208091186274,2.917444155617984,1.782747063587173,2.029694895538267,0.14203729126661063,-0.08687867329820718,N,
1.092133457026938,0.00360677906711037,252.0,13.573685211962916,6.0,947.829458320312,2.383818059793116,1.768608376299138,2.145244870640652,0.1753438185759058,0.03782913255718795,N,
1.0133247503570477,0.0035451344183155048,259.0,13.573685211962916,6.0,829.7674170504451,1.92966056436027,1.4905499079938338,2.0923273570495815,0.15372392466509438,0.3250207902785758,N,
1.1702052398488816,0.0039008356088067173,261.0,13.573685211962916,6.0,1048.9170081651582,2.205395515868476,2.1470314184502777,2.3942758771231607,0.3111879145977449,0.01833509918671155,N,
1.1436725748729677,0.003765298623116318,271.0,13.573685211962916,6.0,1026.924005488486,2.517885594904913,2.186871938507286,2.0668618002205106,0.10352692999577676,-0.8146824788538927,N,
1.0644012570833454,0.003767138219336714,275.0,13.573685211962916,6.0,1047.5560455631614,2.3674690582322637,2.435147031014821,2.129923819600913,0.05747188654054052,-0.7071252167951599,N,
1.0229593571245945,0.0034741938907306186,279.0,13.573685211962916,6.0,890.9759935746131,2.014129601255636,1.8800302041441976,1.9954427339683376,0.07356373595412821,-0.48594633741473253,N,
1.1528744357466043,0.00377940473274331,270.0,13.573685211962916,1.2,1069.2028088287607,2.8078682021934904,2.001939918819475,2.225560215141912,0.12372009175470422,-0.7471059923138967,N,
1.1092186244344622,0.003649043397938131,266.0,13.573685211962916,6.0,963.5717511021612,2.108806336637361,1.809287478456343,2.3901119443506675,0.2287360621874381,0.09434427386835438,N,
0.9784200911229776,0.0033387741676578885,255.0,13.573685211962916,1.2,807.3545181302653,1.9776669673418443,1.6148910444343707,1.7407114092555984,0.11615042155435785,-0.10957375880148527,N,
1.112611756648194,0.003747999826389618,268.0,13.573685211962916,6.0,878.8153793822124,1.7154447086191866,1.595284613980204,2.219621858735341,0.3218461128157838,0.6188079049811939,N,1.556734213325926
1.1566852417322138,0.0037897270541506125,275.0,13.573685211962916,1.2,1133.4781341398195,2.7344637932372216,2.1681054573094305,2.447753680287523,0.15991800886019755,-0.6360338086906047,N,
1.1750290843401476,0.004034947057667315,292.0,13.573685211962916,6.0,1146.924597745676,2.5730924167158538,2.413245238220237,2.473556122681601,0.18435372801545713,-0.3705040952163454,N,
1.1144243370257931,0.003703799169038531,276.0,13.573685211962916,6.0,1018.501747218145,2.2931175312826966,1.976417315298354,2.3533888018503477,0.16333356406779834,-0.11956149779289764,N,
1.2453205827349756,0.004048330169870498,277.0,13.573685211962916,1.2,1365.8354711606453,3.689365150061177,2.9106495122423417,2.4126706304339454,0.097047993730138,-1.5709243854823653,N,
1.2013791472885587,0.00396830885277188,275.0,13.573685211962916,6.0,1131.3348216910429,2.359746641120063,2.3899185054042538,2.6541940517021443,0.19351878411702178,-0.39113790229565665,N,
1.1708788501658136,0.0038454099197952696,267.0,13.573685211962916,1.2,1068.532569611559,2.679825745112325,1.894298424397773,2.549317197388301,0.10198638966983868,-0.3102019676943317,N,
1.0831214556986168,0.0037024519069447223,267.0,13.573685211962916,6.0,970.1219768203196,2.2518512453613426,1.9353907063278633,2.2269203291164614,0.15438932921409082,0.09595380487523116,N,
1.2965347634331903,0.004193865201675227,265.0,13.573685211962916,6.0,1877.5326374267459,5.880197389213002,4.717419411690195,1.9566336195609446,0.01138316446171311,-3.4589238502989774,N,
1.2451273357805255,0.004029545372109047,273.0,13.573685211962916,6.0,1249.4444217991647,3.00519147366958,2.9905968629046624,2.2632003504860054,0.08376888645735829,-2.163228149908365,N,
1.1292487934938296,0.003754058929108856,279.0,13.573685211962916,1.2,1154.3932794128086,2.924621381629756,2.329391041371423,2.3828000681228034,0.043315749265392285,-1.1574910790766217,N,
1.2756169648750182,0.004116584161499643,288.0,13.573685211962916,6.0,1828.4667396586926,5.8832559579240105,4.613506222694129,1.6108290066728623,0.034742886729373645,-4.913090633102066,N,
1.1375949138277859,0.003832046817305422,284.0,13.573685211962916,6.0,1218.5252031719192,2.779388015848488,2.6875608307663432,2.5199490809464185,0.09242212665358242,-1.2173182964014646,N,
1.1991591936727501,0.0038988377447043902,280.0,13.573685211962916,6.0,1163.8219642489119,3.0894557685166237,2.05920881302099,2.6172534458699532,0.04762028293091035,-0.5481619977092721,N,
1.1520545808422034,0.00393954771317323,262.0,13.573685211962916,6.0,1019.7503911732938,1.9461594622392968,2.052568066902261,2.6021917549197418,0.291893030688423,-0.03518569249721668,N,
1.0997906065846261,0.003722144990562074,273.0,13.573685211962916,6.0,1054.9075759000314,2.385386245786272,2.352485652345765,2.1714309532847547,0.1004808849040463,-0.6005723758402395,N,
1.1323722848122526,0.0038251845099732907,272.0,13.573685211962916,6.0,1116.3692044685727,2.651515667977393,2.1932244947920254,2.466551999611913,0.12826232533761514,-0.7050295241126877,N,
1.1621416200149193,0.003851766324493303,274.0,13.573685211962916,6.0,1120.4038247964295,2.449520424305011,2.144285018133977,2.69906151410456,0.16646794130348713,-0.34258033224800627,N,
1.1234799922571008,0.0037870331486061404,273.0,13.573685211962916,6.0,958.4531246717977,1.9613251522220654,1.860414813789559,2.3747584163945366,0.2009053314592857,-0.2784415918084837,N,
1.1089554398655181,0.0037456412612421985,285.0,13.573685211962916,1.2,1072.3311977783665,2.464434188998509,2.0355237263358337,2.4984218379063985,0.12757053081852285,-0.3323314376308254,N,
1.293492631249761,0.004189921080429126,293.0,13.573685211962916,6.0,1883.0795281844291,5.838231292536083,4.687816696189265,1.9941150386459552,0.030009510072102914,-4.201997210627982,N,
1.1684235157927858,0.0039039374769743425,274.0,13.573685211962916,6.0,1007.1827898468216,2.1272306405100174,1.9504621704229965,2.5286203435628902,0.22083342582871623,-0.32203953430031446,N,
1.1585432450618829,0.003857173057820325,263.0,13.573685211962916,6.0,1050.1397269427196,2.1592200129652372,2.050846210772973,2.5883096172135036,0.18962510922458986,-0.06586240843534652,N,
1.1333525129266888,0.0038831943466505177,273.0,13.573685211962916,6.0,1055.3145489007213,2.3503029592456746,2.365394880341367,2.271940543209357,0.10625467685601551,-1.0036053839391978,N,
1.12427011909473,0.003888941149713265,271.0,13.573685211962916,6.0,1045.2323979135886,2.1879102426744437,2.239106559245153,2.432948309155423,0.09388492175675218,-0.8957671546233171,N,
1.110912190942884,0.0036537796292773895,286.0,13.573685211962916,6.0,956.3703907576695,1.9467365108911197,1.7678080253398671,2.443618597104972,0.202456557568681,0.20971896895352288,N,
1.1482527486609597,0.003828847963424633,295.0,13.573685211962916,1.2,1068.2459972212212,2.5295501599246792,2.0182023234887283,2.3735911187097467,0.20262140411022853,-0.42613339420292895,N,
1.1209845024540632,0.0038969187717777785,282.0,13.573685211962916,6.0,1063.9651109354138,2.237477529136126,2.0649916570314906,2.6627511320859205,0.14928544424454115,-0.17488546726108264,N,
1.0865544263032851,0.0037924774997092686,278.0,13.573685211962916,6.0,988.3724045281738,2.1986692965762975,2.0933180033870755,2.2010897630383393,0.12758226128479633,-0.4425431746673617,N,
1.125213869935967,0.0037879271768012225,270.0,13.573685211962916,6.0,1056.1916247324762,2.336969551444486,2.3870642900619523,2.276958235670437,0.02660403316635101,-1.024671428106501,N,
1.1252882858766189,0.0038166926900790646,278.0,13.573685211962916,6.0,1096.2084654844919,2.647948141586574,2.2384250063866395,2.3279934392163533,0.11146246543014862,-0.9493546823428332,N,
1.1268485421022232,0.0037296421093789517,271.0,13.573685211962916,6.0,978.457733112128,2.137392798708238,1.733469119997877,2.479639603846508,0.22646321786816132,-0.3036731802688096,N,
1.0429460908734869,0.0036400708881146825,268.0,13.573685211962916,6.0,854.1134351468276,1.5048701052319773,1.5065923079497108,2.443527736399577,0.21819913263555754,0.3687840569231899,N,
1.0609444504110948,0.003661720282191432,282.0,13.573685211962916,6.0,1029.8160983655903,2.436862094763471,2.3555040170682404,1.984806329741958,0.0824572710140895,-0.258281008012464,N,
1.163560407060264,0.00392812274424946,297.0,13.573685211962916,6.0,1300.712711824096,3.397135352717025,3.1197358015647008,2.2206267599784746,0.013461183973646115,-1.9060029677137669,N,
1.1949602417543166,0.004088549346454448,276.0,13.573685211962916,6.0,1270.841748226823,3.1396437826280814,3.404292566154748,1.8797774945988588,0.03994396968353761,-2.819383769718904,N,
1.2095144037337835,0.003946735549945046,268.0,13.573685211962916,6.0,1201.164319882512,3.124934416594301,2.3738452719733765,2.5446585669630215,0.08164078447029284,-1.214217039022976,N,
1.209749869065011,0.003953444337636226,262.0,13.573685211962916,6.0,1247.8096186306257,3.5261439144167426,2.2734092044974785,2.596135962160218,0.08345440743556287,-0.7638775441231019,N,
1.1991646216305014,0.003953179173839142,253.0,13.573685211962916,6.0,1113.1256712672682,2.778927241352264,2.135763557139873,2.524556352957331,0.08437636494523937,-0.6439953106669614,N,
1.2134231190536506,0.00400748826948103,258.0,13.573685211962916,1.2,1187.511503950558,3.2600772662874125,2.1442227901491306,2.4188253954072025,0.11185403238430852,-0.56123173685233,N,
1.2508731976235052,0.004166089500659537,263.0,13.573685211962916,6.0,1421.0356203434449,4.004845095920576,2.9209991561178485,2.775845926984921,0.029021393408362264,-1.7858606115900657,N,
1.264464253444106,0.004084340052282377,262.0,13.573685211962916,1.2,1536.4275407084676,4.729191319794362,3.291488325389638,2.2976900941281935,0.04312221955311067,-2.596463582924043,N,
1.2037170567046094,0.004022383989511299,265.0,13.573685211962916,6.0,1238.1655548103952,3.2317467895039864,2.5609058166227423,2.685122574411912,0.09889980737242993,-1.1734341923286116,N,
1.1339006010963364,0.003789666962686758,265.0,13.573685211962916,1.2,1205.4716083186165,3.2032955651721795,2.082005638903107,2.6324129825851257,0.14590173157537228,0.0075263693527298624,N,
1.3306993912710348,0.004275421711546949,273.0,13.573685211962916,6.0,2032.9592011481623,7.083688430414445,4.613734128338177,1.9968659330207528,0.02918272578101406,-4.024126377534936,N,
1.293913259822461,0.004283719280163238,256.0,13.573685211962916,6.0,1464.5735688830964,4.181776207290406,2.975199905829467,2.4395036103515877,0.042052938408142684,-1.4724446177903074,N,
1.2232645179929864,0.003995886531064509,240.0,13.573685211962916,1.2,1123.509585642198,3.2151858207982187,1.8297696639898284,2.4997966007117185,0.1182348361186876,-0.17377701757225425,N,
1.3140503033895625,0.004278523518602716,245.0,13.573685211962916,6.0,1590.3247373062723,4.460863817033281,3.2560392309623207,3.0569646249545173,0.1499286014919728,-1.7569233604784913,N,
1.3960733542828185,0.004355298139558893,251.0,13.573685211962916,1.2,1630.9612637386456,4.9973822176570275,3.0502673593842866,2.7227329014177943,0.09024560649237245,-1.5354823896200058,N,
1.24422275499861,0.004084553046790606,254.0,13.573685211962916,6.0,1424.547370438337,4.144943830564773,2.8263035675667263,2.622776559385063,0.05135297570302824,-1.7459539633135504,N,
1.2144485381322367,0.003955239319334864,259.0,13.573685211962916,6.0,1174.0105403044877,2.731197621863855,2.4290194181278104,2.5019256887220442,0.150820480023437,-0.21965748067657279,N,
1.2074477580573297,0.0039854888882252075,263.0,13.573685211962916,1.2,1383.506990358142,4.232917203465255,2.4649430123320166,2.6288801206347263,0.1278444022368419,-0.9024860239206618,N,
1.2877190387945439,0.004259808890666193,259.0,13.573685211962916,6.0,1470.7779543713566,3.798369907791608,2.851166129700355,2.9617787217550657,0.13104189507228686,-1.1868984688237787,N,
1.1557312882141262,0.003794493449258458,246.0,13.573685211962916,6.0,1140.2338097115387,3.295455438881005,2.0709103597656937,2.4131654212852465,0.0732158216647845,-0.4843579562936119,N,
1.2259164590375835,0.004090295009615218,249.0,13.573685211962916,6.0,1450.178620344885,3.667951545004565,3.3809113848106054,2.6442978932166374,0.05117118842752748,-2.157712908198842,N,
1.1947547568596362,0.004018116914000117,249.0,13.573685211962916,6.0,1322.7183534726578,3.9771458893390497,2.581077083934525,2.5486131255991826,0.01603442317142304,-0.8995342792693825,N,
1.2883736170117495,0.004192718097187784,250.0,13.573685211962916,6.0,1365.5946679666422,3.4270050491861954,2.5831676950835063,2.81249118759371,0.29030990227127074,-0.7699687444775827,N,
1.230912180278633,0.004163754736292125,246.0,13.573685211962916,6.0,1416.2827876492436,3.8320229758292723,3.331196886574491,2.3702789548032506,0.04892259795356037,-1.3170442265501856,N,
1.1474949406737642,0.0037957312066393832,264.0,13.573685211962916,6.0,1059.6684144597561,2.6415516536052563,2.1772386765006293,2.2975073232430123,0.03558947700423899,-0.988257075742442,N,
1.1273774092155782,0.003720816840736208,271.0,13.573685211962916,6.0,1259.3930717822757,3.5769937264255582,2.408805717867548,2.358799988985079,0.07912557421056288,-0.8551157505161785,N,
1.3094489053040206,0.004287172045587764,273.0,13.573685211962916,1.2,1526.356217965193,4.5382089295371095,3.156048646067885,2.5725103666617666,0.016837132199109116,-2.6676384300910327,N,
1.2213733580876185,0.004012843502015472,265.0,13.573685211962916,6.0,1137.2297875145246,2.48939150478784,2.304637873236291,2.6664808753468856,0.2173041961576427,-0.7857026434180635,N,
1.0854542318635332,0.003671538791257681,262.0,13.573685211962916,6.0,966.6131354037481,2.37926622290022,1.6393173395561274,2.496803373672091,0.16289431332727577,-0.2525176978033775,N,
1.1554562924370662,0.0038826210261260203,257.0,13.573685211962916,6.0,1133.1067244202784,2.9126874003999177,2.374564649347351,2.2550133183639773,0.048798303960999906,-1.2647424514124752,N,
1.282363043657019,0.004303944111665222,270.0,13.573685211962916,6.0,1585.564613483075,4.546263253005171,3.820114990896083,2.2529400764677896,0.08052814847818277,-3.4707207084354703,N,
1.2323066027315386,0.004017713687916202,267.0,13.573685211962916,6.0,1219.5491392031065,2.8444311378279403,2.4332892707735154,2.700709356814137,0.18519898149282993,-0.9717849669400515,N,
1.1698694796807902,0.0038357612720243467,270.0,13.573685211962916,1.2,1216.397581651172,3.1738766987475087,2.095685815789208,2.654620795457193,0.17119163798965656,-0.06449594892789419,N,
1.301613358150288,0.004142691560812709,283.0,13.573685211962916,6.0,1482.7392178564596,4.058477697701884,2.872681615394297,2.6986161312759283,0.2619607381305321,-1.2705959849730093,N,
1.3205561774428294,0.004263258797327725,279.0,13.573685211962916,1.2,1586.7457032661732,4.274529969810047,2.9286823662162806,3.2336722627874264,0.20051086944120902,-1.2093987036688412,N,
1.2027969533825378,0.003994686508406458,270.0,13.573685211962916,6.0,1265.8193034011201,3.176181534290846,2.458564592164488,2.8137648858144226,0.11310438608380727,-0.6760397506305527,N,
1.1325693906003753,0.003846464400937635,260.0,13.573685211962916,6.0,1083.344084417133,2.7735204263521163,2.1372845888082748,2.43524792502545,0.10664825246875981,-0.7036614342805635,N,
1.1995653775727175,0.00392437748199151,255.0,13.573685211962916,6.0,1217.690638383582,3.0014835748512665,2.602091589600877,2.6130071756952615,0.11334930544897732,-0.8570905045603618,N,
1.0570422974961589,0.003610723615212496,253.0,13.573685211962916,6.0,940.3032293122521,2.2913617558339245,1.8002995266040982,2.1979867941056552,0.18945838462149825,0.4811304511951157,N,
1.0663183944710228,0.003579274102321312,257.0,13.573685211962916,6.0,985.6858472351083,2.269222705914988,1.8355968953681143,2.370959977477807,0.10147047385709593,-0.06603035532154677,N,
1.218769421713287,0.0039560191350949715,276.0,13.573685211962916,6.0,1575.620438307337,4.922810916613017,3.72513044717152,1.9563662202237915,0.013736250174461154,-2.3940043925309307,N,
1.130008510523114,0.003760776726802984,269.0,13.573685211962916,6.0,1092.654807418305,2.421732044384757,2.3868682951687914,2.405150047931619,0.13774404590256512,-0.41758824184201276,N,
1.1131338392352967,0.0036973014143112425,269.0,13.573685211962916,6.0,951.2232072914549,2.2801860367292477,1.6811045442113288,2.217603173846862,0.2091774296661777,0.23658212888862395,N,
1.118985033051002,0.0036902498507796816,271.0,13.573685211962916,6.0,966.3821954638036,2.4590222073169463,1.7423494518377214,2.1248250568011424,0.10681710965831942,-0.10856894099477628,N,
1.0914251754856228,0.0037887912839746378,270.0,13.573685211962916,6.0,1006.9925805241206,2.6517032849647757,1.827316911058153,2.3203606367307232,0.14685977170797893,-0.30481090816022804,N,
1.110757971217379,0.003644494623161155,259.0,13.573685211962916,6.0,982.7407909753375,2.4682503614502833,1.762789500014642,2.2442266655846463,0.1275530265434987,-0.15895981112030425,N,
1.040566356213686,0.003480295494385292,271.0,13.573685211962916,6.0,833.2188694931764,1.79471308301017,1.385531659853811,2.223205933881897,0.196320022616882,0.34793171999182304,N,
1.0596813776909115,0.0035439827221215724,271.0,13.573685211962916,1.2,984.2786316421606,2.3707698631888072,1.7406313611394753,2.327133733907014,0.1297717330148615,0.28021469397141824,N,
1.0856795722509576,0.0037125215683857116,278.0,13.573685211962916,6.0,997.5909062502254,2.30584633663265,2.19643519082793,2.077689185722972,0.06931142243444396,-0.8688403093929705,N,
1.1080253979265182,0.0037351692904549353,294.0,13.573685211962916,1.2,1091.9545982837622,2.770156377484078,2.5789946577298037,1.9196736979136675,0.012760665304719462,-1.6366794851596118,N,
1.1560002400177316,0.0038985994476401714,300.0,13.573685211962916,6.0,1348.440418838204,3.8145460632645736,3.3850118678551193,1.7769534808608183,0.012111344471125354,-2.2318505454658704,N,
1.1265848741433855,0.003777342316235461,289.0,13.573685211962916,6.0,961.2245109640107,2.289634148163927,1.864648966564839,2.125853799160283,0.10946047895945783,-0.3681080116537744,N,
1.0955985970340711,0.003612876264059235,276.0,13.573685211962916,6.0,891.8187234583138,1.8420805625664611,1.5666147913728685,2.2814653742046827,0.23235108499701967,-0.19213993320365896,N,
1.0540854901998613,0.0036226169837934386,280.0,13.573685211962916,6.0,977.2345735008232,2.11034670997855,2.101186980756457,2.106325113808655,0.16257447105291217,-0.21646460912774396,N,
1.309697970412448,0.004251486166218071,278.0,13.573685211962916,6.0,1921.1076659515534,6.206154017988604,5.014020285523309,1.5692560914897626,0.02900379877891204,-4.864839974765676,N,
1.09769022284411,0.0036119891513370873,294.0,13.573685211962916,6.0,941.0330443437078,2.3454182483565043,1.8528450031539476,1.9594381680114286,0.10035397283719066,-0.28362880749922936,N,
1.0366244526730284,0.0035911595456562147,294.0,13.573685211962916,6.0,1042.6320677036117,2.4928670920203313,2.543329494361514,1.8313799864168785,0.07420942920123086,-0.4907602180379164,N,
1.0534488350753928,0.003741072096782325,275.0,13.573685211962916,14.4,908.0512603543295,1.066566955764109,4.102294044399019,0.8781464156028268,0.03303674913304391,-3.502228291946053,N,
1.1322370601774094,0.003770225151410748,275.0,13.573685211962916,1.2,1084.9809397035372,2.2306160024807995,3.8439880254337635,1.061762927968968,0.05491386136193667,-2.908633620367067,N,
1.190711016042872,0.0038903118585803037,303.0,13.573685211962916,6.0,1461.5950974806735,6.143712221582069,1.596333114605722,1.9985141093069316,0.0012682496019029094,0.3772752054234668,A,
1.0446785662877298,0.003547716363181769,304.0,13.573685211962916,6.0,990.8554979631646,2.52177184293739,2.454034538198348,1.669635515104766,0.015038279521730154,-0.43688101664242346,N,
1.0981509387078547,0.0036884834371671243,269.0,13.573685211962916,6.0,987.9319748252593,2.013029104173309,1.8588741672255404,2.539718287021012,0.16432023791640638,0.2941544103449333,N,
1.0631283066255381,0.0036044211157491082,278.0,13.573685211962916,6.0,947.275634322071,2.1406533208174774,1.8065665797035635,2.24941140554269,0.10782538498432255,-0.32618005377763154,N,
1.1594495658617214,0.003930061955314853,282.0,13.573685211962916,6.0,1342.1857863467762,3.6064949526850225,3.6888277025791743,1.6236456776711539,0.031334615050223946,-3.2031073054725727,N,
1.0628718400288,0.0035941610932093988,295.0,13.573685211962916,6.0,998.026147821494,2.350240553562526,1.970574956098147,2.2659299461620135,0.08874419590599167,0.07885620263788962,N,
1.1346168179720433,0.003713215971593695,291.0,13.573685211962916,6.0,1051.4073192847782,2.3950937976296505,2.127412279148782,2.3548459265112345,0.1251565234880893,-0.13447634879423376,N,
1.2012518283074014,0.003908748253115717,285.0,13.573685211962916,6.0,1507.6877484308825,4.196472921606297,3.5271746541323274,2.316822214064047,0.012424676123959031,-1.5396001907705241,N,
1.1716958538958218,0.003951981799795786,277.0,13.573685211962916,6.0,1305.565986009258,3.127350602091912,3.65886542815981,1.8528032348924692,0.0518355853625342,-2.6582100649720766,N,
1.1023388156970697,0.003666509134328873,278.0,13.573685211962916,6.0,975.9656141434846,2.1439795068634875,1.7989745276851425,2.405369053686313,0.19158835074383226,0.2509273747387608,N,
1.113488343607001,0.0037941009711228465,269.0,13.573685211962916,6.0,1010.0302236389138,1.929417802590053,2.082684408169443,2.5627092617636724,0.17424327707623052,0.0360897724355281,N,
1.1108607224016096,0.0037190809712410087,275.0,13.573685211962916,6.0,1066.0481704349727,2.5985346644555087,2.415293852034968,2.0222777775896024,0.06554482209587292,-1.3650009942016632,N,
1.0664700080095406,0.0035187662189688613,286.0,13.573685211962916,6.0,976.1946248475608,2.210611669685464,1.9892025256006882,2.183102525394927,0.10397193442265465,-0.24676542093711298,N,
1.1040070421414787,0.0037264524830377564,286.0,13.573685211962916,6.0,1163.5518887733178,3.073617078527704,2.518677418092339,2.0881718571874446,0.05442692315003157,-1.1622322899422037,N,
1.1242149986048606,0.0036983223984828313,299.0,13.573685211962916,6.0,1029.7617860932494,2.628183163246246,2.0781123080852146,2.0903188458125834,0.0810760996012911,-0.5105529820772932,N,
1.0866194285135597,0.003711761435249515,286.0,13.573685211962916,6.0,934.7357100334401,2.2516874700116545,1.7616160116922637,2.1995323635952673,0.05261066440120083,-0.21261404176948578,N,
1.112780858541043,0.0036393992455463616,269.0,13.573685211962916,6.0,956.997632802146,1.9956598803805439,1.828802212625466,2.397476258650063,0.18179252285057015,-0.21756318197538105,N,
1.2027104236849555,0.0040155538095060905,268.0,13.573685211962916,6.0,1192.2142124469012,2.5479277120155306,2.3976170247612467,2.7752873993468468,0.19063966203024588,-0.5287227682075148,N,
1.202061123160822,0.003925442545991462,282.0,13.573685211962916,6.0,1263.2409404740195,3.301703551505639,2.595257655340832,2.456289745516487,0.05732310046776312,-1.0706381130802978,N,
1.2759135079652866,0.004198781517906499,271.0,13.573685211962916,6.0,1779.6255382589875,5.86250169858118,4.572024185846966,1.4114969608470924,0.04671139015597997,-4.301903103449482,N,
1.1173205877443502,0.0038533809951341955,277.0,13.573685211962916,6.0,1191.0005044987408,2.518628586560887,3.042582951444305,2.3147151044239407,0.037080689135407754,-1.4692446211986876,N,
1.2867705158940113,0.004208959651973025,273.0,13.573685211962916,6.0,1588.870241957165,4.65327127898471,3.438857222018063,2.4527257794046715,0.02936320924940233,-2.7335574247895895,N,
1.2034515391613179,0.003899820607046781,275.0,13.573685211962916,6.0,1120.3668910821095,2.4215494480777977,2.062338203896064,2.7643604159616517,0.21514232454615895,-0.4130733661180996,N,
1.2116056615529858,0.00400582472869098,274.0,13.573685211962916,6.0,1332.130390708415,3.4802128723313435,3.180723592272962,2.265219729777101,0.05444274575954536,-1.5791240240291669,N,
1.2857569279032282,0.004157230208158212,262.0,13.573685211962916,6.0,1669.9369222586981,5.321900280035292,4.0804259228551025,1.736925933017721,0.05707278051292489,-3.404982853361075,N,
1.2611525535993104,0.0041688683255417195,257.0,13.573685211962916,6.0,1243.9711975173743,3.0551737192151616,2.400837974637203,2.8788777878921286,0.11692355779513164,-0.7510120810575763,N,
1.3401663866209415,0.004422282369930544,262.0,13.573685211962916,6.0,1438.1199915598556,3.525556783164022,3.0142058832633065,2.827327230666077,0.2953965607403797,-0.9277880358750846,N,
1.263497977285655,0.004097521155501128,263.0,13.573685211962916,6.0,1319.155980616246,3.3577366106405884,2.6500982468153134,2.690794682617693,0.11167330921371905,-0.9579750729799406,N,
1.1766430143420752,0.003843440405102372,276.0,13.573685211962916,6.0,1119.1544381526908,2.566984874862048,2.6501171104313146,2.190332268327678,0.05172532128208512,-1.4887648044044646,N,
1.1927691484789558,0.003923369377689433,270.0,13.573685211962916,1.2,1373.574725564715,4.088019399634744,2.6983471107339465,2.29133547195612,0.05844464853941541,-1.3711481688179477,N,
1.3332225254807861,0.0042116765046882575,275.0,13.573685211962916,6.0,1365.5022195660415,3.213227007688426,2.9129527150292045,2.812410042328934,0.20386158802002588,-1.1803871982811243,N,
1.1389616783333094,0.0038501257901198053,264.0,13.573685211962916,6.0,1072.1863188097645,2.814546451517559,2.2876978233535117,2.1847827592819855,0.05764302801413025,-1.0227526874158552,N,
1.1345484673833217,0.0037367290932436873,256.0,13.573685211962916,6.0,1003.1654622467066,2.3657534832693945,1.9062440171666557,2.3319469269138584,0.15545060989999193,-0.621050219831911,N,
1.213409497739343,0.004082688154897139,261.0,13.573685211962916,6.0,1347.0465259030623,3.913702819238477,2.6961697651642598,2.4351312220680885,0.059661723060637106,-1.3047596103112147,N,
1.273396782322358,0.004091379112600436,262.0,13.573685211962916,6.0,1294.4099477394473,3.1614723634029414,2.329205387696734,2.996881694158333,0.23475272200260916,-0.46628602539701225,N,
1.001999356495312,0.0032552640113409723,259.0,13.573685211962916,6.0,851.736268700346,2.1269511541882107,1.6261370083973248,1.8427926967542623,0.12142495370701696,0.20827166829875196,N,
1.1140332284863026,0.0035384486586395154,272.0,13.573685211962916,6.0,1027.2260194252658,2.6362033932938562,2.0794566154425476,2.076556153156807,0.03420930735457823,-0.8837904894759071,N,
1.180967132224993,0.003921967351465384,287.0,13.573685211962916,6.0,1399.2256947401604,3.9965752943877235,2.9034126000424827,2.340852558224067,0.05300844177959242,-1.7960122662569629,N,
1.2578440192726286,0.004094245051192159,288.0,13.573685211962916,6.0,1313.8597469942392,3.2139918529170646,2.4664937929881585,2.8969818973980903,0.15168374190568495,-0.7298869460942708,N,
1.1546332133655781,0.0038969832794135827,273.0,13.573685211962916,6.0,1019.2181510509304,2.393312824185178,1.882371428603436,2.4489815286528147,0.10277592791111842,-0.5986833471457069,N,
1.3200382553871115,0.004299985144966821,270.0,13.573685211962916,6.0,1902.7527782704833,5.420489279970625,4.9788423192954445,2.233517437223709,0.06082994961495476,-4.042088442495269,N,
1.207744031036554,0.00404772791450441,270.0,13.573685211962916,6.0,1330.1649330908615,2.9192102855990187,2.973621133795356,2.8832806240777007,0.13879587013654587,-1.2913510640782664,N,
1.4004395607036606,0.004597593173904474,272.0,13.573685211962916,6.0,2006.8823774291166,5.933001606865809,4.90955005544899,2.4781877560511916,0.029936810807643776,-5.158155244503708,N,
